1.764958335009623625e+01 2.122761383056640625e+02
1.768117095993878252e+01 2.080182952880859375e+02
1.771275856978133234e+01 2.089341735839843750e+02
1.774434617962387861e+01 2.010905609130859375e+02
1.777593378946642488e+01 1.983427124023437500e+02
1.780752139930897116e+01 1.996340332031250000e+02
1.783910900915152098e+01 1.985022583007812500e+02
1.787069661899406725e+01 1.992820281982421875e+02
1.790228422883661352e+01 1.961802368164062500e+02
1.793387183867915979e+01 1.919966278076171875e+02
1.796545944852170962e+01 1.872346954345703125e+02
1.799704705836425589e+01 1.868022155761718750e+02
1.802863466820680216e+01 1.857147521972656250e+02
1.806022227804935198e+01 1.826934509277343750e+02
1.809180988789189826e+01 1.796232757568359375e+02
1.812339749773444453e+01 1.774351654052734375e+02
1.815498510757699080e+01 1.775749359130859375e+02
1.818657271741954062e+01 1.759574127197265625e+02
1.821816032726208689e+01 1.789216766357421875e+02
1.824974793710463317e+01 1.795240325927734375e+02
1.828133554694717944e+01 1.764862213134765625e+02
1.831292315678972926e+01 1.784638519287109375e+02
1.834451076663227553e+01 1.780029907226562500e+02
1.837609837647482181e+01 1.743106384277343750e+02
1.840768598631737163e+01 1.747500152587890625e+02
1.843927359615991790e+01 1.776063842773437500e+02
1.847086120600246417e+01 1.770876312255859375e+02
1.850244881584501044e+01 1.804978179931640625e+02
1.853403642568756027e+01 1.799867858886718750e+02
1.856562403553010654e+01 1.796413116455078125e+02
1.859721164537265281e+01 1.792849273681640625e+02
1.862879925521519908e+01 1.786782836914062500e+02
1.866038686505774891e+01 1.809667205810546875e+02
1.869197447490029518e+01 1.763860473632812500e+02
1.872356208474284145e+01 1.766486968994140625e+02
1.875514969458539127e+01 1.806589355468750000e+02
1.878673730442793754e+01 1.786637878417968750e+02
1.881832491427048382e+01 1.774056243896484375e+02
1.884991252411303009e+01 1.791070098876953125e+02
1.888150013395557991e+01 1.776827239990234375e+02
1.891308774379812618e+01 1.756658782958984375e+02
1.894467535364067245e+01 1.741457672119140625e+02
1.897626296348322228e+01 1.763392944335937500e+02
1.900785057332576855e+01 1.748581390380859375e+02
1.903943818316831482e+01 1.723376922607421875e+02
1.907102579301086109e+01 1.749104156494140625e+02
1.910261340285341092e+01 1.768434906005859375e+02
1.913420101269595719e+01 1.762870178222656250e+02
1.916578862253850346e+01 1.731850891113281250e+02
1.919737623238104973e+01 1.727502746582031250e+02
1.922896384222359956e+01 1.770945129394531250e+02
1.926055145206614583e+01 1.764071655273437500e+02
1.929213906190869210e+01 1.754000091552734375e+02
1.932372667175123837e+01 1.731168975830078125e+02
1.935531428159378819e+01 1.723268737792968750e+02
1.938690189143633447e+01 1.729818878173828125e+02
1.941848950127888074e+01 1.732659912109375000e+02
1.945007711112143056e+01 1.730945587158203125e+02
1.948166472096397683e+01 1.738441772460937500e+02
1.951325233080652310e+01 1.740172729492187500e+02
1.954483994064906938e+01 1.751584320068359375e+02
1.957642755049161920e+01 1.752715759277343750e+02
1.960801516033416547e+01 1.772443389892578125e+02
1.963960277017671174e+01 1.799801635742187500e+02
1.967119038001926157e+01 1.786170654296875000e+02
1.970277798986180784e+01 1.792706146240234375e+02
1.973436559970435411e+01 1.809105987548828125e+02
1.976595320954690038e+01 1.806273193359375000e+02
1.979754081938945021e+01 1.782719573974609375e+02
1.982912842923199648e+01 1.772478942871093750e+02
1.986071603907454275e+01 1.781943359375000000e+02
1.989230364891708902e+01 1.802625274658203125e+02
1.992389125875963884e+01 1.820098876953125000e+02
1.995547886860218512e+01 1.826146850585937500e+02
1.998706647844473139e+01 1.796398925781250000e+02
2.001865408828727766e+01 1.778552398681640625e+02
2.005024169812982748e+01 1.802941894531250000e+02
2.008182930797237375e+01 1.792619628906250000e+02
2.011341691781492003e+01 1.808827056884765625e+02
2.014500452765746985e+01 1.807546844482421875e+02
2.017659213750001612e+01 1.786251831054687500e+02
2.020817974734256239e+01 1.799803314208984375e+02
2.023976735718510866e+01 1.794672393798828125e+02
2.027135496702765849e+01 1.809276733398437500e+02
2.030294257687020476e+01 1.821677856445312500e+02
2.033453018671275103e+01 1.813569335937500000e+02
2.036611779655530086e+01 1.806879882812500000e+02
2.039770540639784713e+01 1.807544555664062500e+02
2.042929301624039340e+01 1.807647552490234375e+02
2.046088062608293967e+01 1.822934570312500000e+02
2.049246823592548949e+01 1.832792663574218750e+02
2.052405584576803577e+01 1.815530242919921875e+02
2.055564345561058204e+01 1.810429534912109375e+02
2.058723106545312831e+01 1.817281646728515625e+02
2.061881867529567813e+01 1.774683380126953125e+02
2.065040628513822440e+01 1.791560058593750000e+02
2.068199389498077068e+01 1.812370910644531250e+02
2.071358150482331695e+01 1.818736419677734375e+02
2.074516911466586677e+01 1.803124237060546875e+02
2.077675672450841304e+01 1.808829803466796875e+02
2.080834433435095931e+01 1.814041900634765625e+02
2.083993194419350914e+01 1.803353576660156250e+02
2.087151955403605541e+01 1.806687011718750000e+02
2.090310716387860168e+01 1.828419189453125000e+02
2.093469477372114795e+01 1.853817901611328125e+02
2.096628238356369778e+01 1.843214263916015625e+02
2.099786999340624405e+01 1.831670684814453125e+02
2.102945760324879032e+01 1.821362762451171875e+02
2.106104521309134014e+01 1.806313781738281250e+02
2.109263282293388642e+01 1.833609313964843750e+02
2.112422043277643269e+01 1.861359558105468750e+02
2.115580804261897896e+01 1.868368988037109375e+02
2.118739565246152878e+01 1.846317749023437500e+02
2.121898326230407505e+01 1.846899719238281250e+02
2.125057087214662133e+01 1.863237915039062500e+02
2.128215848198917115e+01 1.863500213623046875e+02
2.131374609183171742e+01 1.845470886230468750e+02
2.134533370167426369e+01 1.850083465576171875e+02
2.137692131151680996e+01 1.840265502929687500e+02
2.140850892135935624e+01 1.843729248046875000e+02
2.144009653120190606e+01 1.831903076171875000e+02
2.147168414104445233e+01 1.838217620849609375e+02
2.150327175088699860e+01 1.857588958740234375e+02
2.153485936072954843e+01 1.864619903564453125e+02
2.156644697057209470e+01 1.884480590820312500e+02
2.159803458041464097e+01 1.885307464599609375e+02
2.162962219025718724e+01 1.897415618896484375e+02
2.166120980009973707e+01 1.922136383056640625e+02
2.169279740994228334e+01 1.908131561279296875e+02
2.172438501978482961e+01 1.883295440673828125e+02
2.175597262962737943e+01 1.878838806152343750e+02
2.178756023946992570e+01 1.891098480224609375e+02
2.181914784931247198e+01 1.903650665283203125e+02
2.185073545915501825e+01 1.888138427734375000e+02
2.188232306899756807e+01 1.907671813964843750e+02
2.191391067884011434e+01 1.925946807861328125e+02
2.194549828868266061e+01 1.934290466308593750e+02
2.197708589852521044e+01 1.926456146240234375e+02
2.200867350836775671e+01 1.930715484619140625e+02
2.204026111821030298e+01 1.937873382568359375e+02
2.207184872805284925e+01 1.960061340332031250e+02
2.210343633789539552e+01 1.973157958984375000e+02
2.213502394773794535e+01 1.975820465087890625e+02
2.216661155758049162e+01 1.961147918701171875e+02
2.219819916742304144e+01 1.942512207031250000e+02
2.222978677726558772e+01 1.962425842285156250e+02
2.226137438710813399e+01 1.959600067138671875e+02
2.229296199695068026e+01 1.961764373779296875e+02
2.232454960679322653e+01 1.984082794189453125e+02
2.235613721663577635e+01 2.019984588623046875e+02
2.238772482647832263e+01 2.024277038574218750e+02
2.241931243632086890e+01 2.016198120117187500e+02
2.245090004616341872e+01 2.005368347167968750e+02
2.248248765600596499e+01 2.003936920166015625e+02
2.251407526584851126e+01 2.005614471435546875e+02
2.254566287569105754e+01 2.005216064453125000e+02
2.257725048553360736e+01 2.023079071044921875e+02
2.260883809537615363e+01 2.048089294433593750e+02
2.264042570521869990e+01 2.045611267089843750e+02
2.267201331506124973e+01 2.042372741699218750e+02
2.270360092490379600e+01 2.059430541992187500e+02
2.273518853474634227e+01 2.042247314453125000e+02
2.276677614458888854e+01 2.048724212646484375e+02
2.279836375443143481e+01 2.053288879394531250e+02
2.282995136427398464e+01 2.054974060058593750e+02
2.286153897411653091e+01 2.046130065917968750e+02
2.289312658395908073e+01 2.042761383056640625e+02
2.292471419380162700e+01 2.041675262451171875e+02
2.295630180364417328e+01 2.072336120605468750e+02
2.298788941348671955e+01 2.073130035400390625e+02
2.301947702332926582e+01 2.056115722656250000e+02
2.305106463317181564e+01 2.064756622314453125e+02
2.308265224301436191e+01 2.091892089843750000e+02
2.311423985285690819e+01 2.093355102539062500e+02
2.314582746269945801e+01 2.091467132568359375e+02
2.317741507254200428e+01 2.117444763183593750e+02
2.320900268238455055e+01 2.105581359863281250e+02
2.324059029222709682e+01 2.092330780029296875e+02
2.327217790206964665e+01 2.078071899414062500e+02
2.330376551191219292e+01 2.094951782226562500e+02
2.333535312175473919e+01 2.107310180664062500e+02
2.336694073159728902e+01 2.090051269531250000e+02
2.339852834143983529e+01 2.079320373535156250e+02
2.343011595128238156e+01 2.079839477539062500e+02
2.346170356112492783e+01 2.083378295898437500e+02
2.349329117096747410e+01 2.085609436035156250e+02
2.352487878081002393e+01 2.101929779052734375e+02
2.355646639065257020e+01 2.112597198486328125e+02
2.358805400049512002e+01 2.119894714355468750e+02
2.361964161033766629e+01 2.120738220214843750e+02
2.365122922018021256e+01 2.134846496582031250e+02
2.368281683002275884e+01 2.139698181152343750e+02
2.371440443986530511e+01 2.159663238525390625e+02
2.374599204970785493e+01 2.144785614013671875e+02
2.377757965955040120e+01 2.125135955810546875e+02
2.380916726939294747e+01 2.118383331298828125e+02
2.384075487923549730e+01 2.116043395996093750e+02
2.387234248907804357e+01 2.118502960205078125e+02
2.390393009892058984e+01 2.129578247070312500e+02
2.393551770876313611e+01 2.142244110107421875e+02
2.396710531860568594e+01 2.146510772705078125e+02
2.399869292844823221e+01 2.138493499755859375e+02
2.403028053829077848e+01 2.156231231689453125e+02
2.406186814813332830e+01 2.175741577148437500e+02
2.409345575797587458e+01 2.170099639892578125e+02
2.412504336781842085e+01 2.164804534912109375e+02
2.415663097766096712e+01 2.171524658203125000e+02
2.418821858750351339e+01 2.182631072998046875e+02
2.421980619734606321e+01 2.193394165039062500e+02
2.425139380718860949e+01 2.206382751464843750e+02
2.428298141703115931e+01 2.188843688964843750e+02
2.431456902687370558e+01 2.183230895996093750e+02
2.434615663671625185e+01 2.206654510498046875e+02
2.437774424655879812e+01 2.205056152343750000e+02
2.440933185640134440e+01 2.227694549560546875e+02
2.444091946624389422e+01 2.223689727783203125e+02
2.447250707608644049e+01 2.216277313232421875e+02
2.450409468592898676e+01 2.222849578857421875e+02
2.453568229577153659e+01 2.250512695312500000e+02
2.456726990561408286e+01 2.266614227294921875e+02
2.459885751545662913e+01 2.255829467773437500e+02
2.463044512529917540e+01 2.275339050292968750e+02
2.466203273514172523e+01 2.283054656982421875e+02
2.469362034498427150e+01 2.269364624023437500e+02
2.472520795482681777e+01 2.272501525878906250e+02
2.475679556466936759e+01 2.293289794921875000e+02
2.478838317451191386e+01 2.291687469482421875e+02
2.481997078435446014e+01 2.295542144775390625e+02
2.485155839419700641e+01 2.292748565673828125e+02
2.488314600403955268e+01 2.285230407714843750e+02
2.491473361388210250e+01 2.306910095214843750e+02
2.494632122372464877e+01 2.331217803955078125e+02
2.497790883356719860e+01 2.328417053222656250e+02
2.500949644340974487e+01 2.303369140625000000e+02
2.504108405325229114e+01 2.319650573730468750e+02
2.507267166309483741e+01 2.333492889404296875e+02
2.510425927293738368e+01 2.359431610107421875e+02
2.513584688277993351e+01 2.350142364501953125e+02
2.516743449262247978e+01 2.359792938232421875e+02
2.519902210246502605e+01 2.367962493896484375e+02
2.523060971230757588e+01 2.359650268554687500e+02
2.526219732215012215e+01 2.374356842041015625e+02
2.529378493199266842e+01 2.402701416015625000e+02
2.532537254183521469e+01 2.410047607421875000e+02
2.535696015167776451e+01 2.404976348876953125e+02
2.538854776152031079e+01 2.397535858154296875e+02
2.542013537136285706e+01 2.402525329589843750e+02
2.545172298120540688e+01 2.408148803710937500e+02
2.548331059104795315e+01 2.415132598876953125e+02
2.551489820089049942e+01 2.416942291259765625e+02
2.554648581073304570e+01 2.435823822021484375e+02
2.557807342057559552e+01 2.453499450683593750e+02
2.560966103041814179e+01 2.440996704101562500e+02
2.564124864026068806e+01 2.457500152587890625e+02
2.567283625010323789e+01 2.467068023681640625e+02
2.570442385994578416e+01 2.471518096923828125e+02
2.573601146978833043e+01 2.477118988037109375e+02
2.576759907963087670e+01 2.465569915771484375e+02
2.579918668947342297e+01 2.457201690673828125e+02
2.583077429931597280e+01 2.454231262207031250e+02
2.586236190915851907e+01 2.457566680908203125e+02
2.589394951900106889e+01 2.434488220214843750e+02
2.592553712884361516e+01 2.418013763427734375e+02
2.595712473868616144e+01 2.410199279785156250e+02
2.598871234852870771e+01 2.435774383544921875e+02
2.602029995837125398e+01 2.440327911376953125e+02
2.605188756821380025e+01 2.469612274169921875e+02
2.608347517805635007e+01 2.494005889892578125e+02
2.611506278789889990e+01 2.505495758056640625e+02
2.614665039774144617e+01 2.506291961669921875e+02
2.617823800758399244e+01 2.516756134033203125e+02
2.620982561742653871e+01 2.553843994140625000e+02
2.624141322726908498e+01 2.587501831054687500e+02
2.627300083711163126e+01 2.576618652343750000e+02
2.630458844695418108e+01 2.572726135253906250e+02
2.633617605679672735e+01 2.591441955566406250e+02
2.636776366663927718e+01 2.605718688964843750e+02
2.639935127648182345e+01 2.606780395507812500e+02
2.643093888632436972e+01 2.606878051757812500e+02
2.646252649616691599e+01 2.612140808105468750e+02
2.649411410600946226e+01 2.627524719238281250e+02
2.652570171585201209e+01 2.641139831542968750e+02
2.655728932569455836e+01 2.646682739257812500e+02
2.658887693553710818e+01 2.653024597167968750e+02
2.662046454537965445e+01 2.651690979003906250e+02
2.665205215522220072e+01 2.653580322265625000e+02
2.668363976506474700e+01 2.677392883300781250e+02
2.671522737490729327e+01 2.701405029296875000e+02
2.674681498474984309e+01 2.722027893066406250e+02
2.677840259459238936e+01 2.704912414550781250e+02
2.680999020443493919e+01 2.712246704101562500e+02
2.684157781427748546e+01 2.740991821289062500e+02
2.687316542412003173e+01 2.761635437011718750e+02
2.690475303396257800e+01 2.746549377441406250e+02
2.693634064380512427e+01 2.747477416992187500e+02
2.696792825364767054e+01 2.770681152343750000e+02
2.699951586349022037e+01 2.771488037109375000e+02
2.703110347333276664e+01 2.777767944335937500e+02
2.706269108317531646e+01 2.792609558105468750e+02
2.709427869301786274e+01 2.806752014160156250e+02
2.712586630286040901e+01 2.826294555664062500e+02
2.715745391270295528e+01 2.842438049316406250e+02
2.718904152254550155e+01 2.819305419921875000e+02
2.722062913238805137e+01 2.830053405761718750e+02
2.725221674223059765e+01 2.844955444335937500e+02
2.728380435207314747e+01 2.845449829101562500e+02
2.731539196191569374e+01 2.848208312988281250e+02
2.734697957175824001e+01 2.870469055175781250e+02
2.737856718160078628e+01 2.903395080566406250e+02
2.741015479144333256e+01 2.900562438964843750e+02
2.744174240128588238e+01 2.922253417968750000e+02
2.747333001112842865e+01 2.945625915527343750e+02
2.750491762097097848e+01 2.949328918457031250e+02
2.753650523081352475e+01 2.963915405273437500e+02
2.756809284065607102e+01 2.968199157714843750e+02
2.759968045049861729e+01 2.961076354980468750e+02
2.763126806034116356e+01 2.966269836425781250e+02
2.766285567018370983e+01 2.982366333007812500e+02
2.769444328002625966e+01 2.988894348144531250e+02
2.772603088986880593e+01 2.992223815917968750e+02
2.775761849971135575e+01 2.999553222656250000e+02
2.778920610955390202e+01 3.020174560546875000e+02
2.782079371939644830e+01 3.043321838378906250e+02
2.785238132923899457e+01 3.060628662109375000e+02
2.788396893908154084e+01 3.085125732421875000e+02
2.791555654892409066e+01 3.075101013183593750e+02
2.794714415876663693e+01 3.100626220703125000e+02
2.797873176860918676e+01 3.102634277343750000e+02
2.801031937845173303e+01 3.091528015136718750e+02
2.804190698829427930e+01 3.121598815917968750e+02
2.807349459813682557e+01 3.120571289062500000e+02
2.810508220797937184e+01 3.104937133789062500e+02
2.813666981782192167e+01 3.124993591308593750e+02
2.816825742766446794e+01 3.140170898437500000e+02
2.819984503750701776e+01 3.167200622558593750e+02
2.823143264734956404e+01 3.170347900390625000e+02
2.826302025719211031e+01 3.164967041015625000e+02
2.829460786703465658e+01 3.204758605957031250e+02
2.832619547687720285e+01 3.216907958984375000e+02
2.835778308671974912e+01 3.215269775390625000e+02
2.838937069656229895e+01 3.248894042968750000e+02
2.842095830640484522e+01 3.285499572753906250e+02
2.845254591624739504e+01 3.276532897949218750e+02
2.848413352608994131e+01 3.279853210449218750e+02
2.851572113593248758e+01 3.274208068847656250e+02
2.854730874577503386e+01 3.283782348632812500e+02
2.857889635561758013e+01 3.279843444824218750e+02
2.861048396546012995e+01 3.305876464843750000e+02
2.864207157530267622e+01 3.332558898925781250e+02
2.867365918514522605e+01 3.351289367675781250e+02
2.870524679498777232e+01 3.361897277832031250e+02
2.873683440483031859e+01 3.363757629394531250e+02
2.876842201467286486e+01 3.356088867187500000e+02
2.880000962451541113e+01 3.358341979980468750e+02
2.883159723435796096e+01 3.383503723144531250e+02
2.886318484420050723e+01 3.423401184082031250e+02
2.889477245404305705e+01 3.419857177734375000e+02
2.892636006388560332e+01 3.433073730468750000e+02
2.895794767372814960e+01 3.451921081542968750e+02
2.898953528357069587e+01 3.443452148437500000e+02
2.902112289341324214e+01 3.444147644042968750e+02
2.905271050325578841e+01 3.465924987792968750e+02
2.908429811309833823e+01 3.501013488769531250e+02
2.911588572294088806e+01 3.522157287597656250e+02
2.914747333278343433e+01 3.546844177246093750e+02
2.917906094262598060e+01 3.578053894042968750e+02
2.921064855246852687e+01 3.598021850585937500e+02
2.924223616231107314e+01 3.584213256835937500e+02
2.927382377215361942e+01 3.573693237304687500e+02
2.930541138199616924e+01 3.588863220214843750e+02
2.933699899183871551e+01 3.610343933105468750e+02
2.936858660168126534e+01 3.608691101074218750e+02
2.940017421152381161e+01 3.632556457519531250e+02
2.943176182136635788e+01 3.665828552246093750e+02
2.946334943120890415e+01 3.672038269042968750e+02
2.949493704105145042e+01 3.668998718261718750e+02
2.952652465089400025e+01 3.679221191406250000e+02
2.955811226073654652e+01 3.702859802246093750e+02
2.958969987057909634e+01 3.745018615722656250e+02
2.962128748042164261e+01 3.778892822265625000e+02
2.965287509026418888e+01 3.802621154785156250e+02
2.968446270010673516e+01 3.791914062500000000e+02
2.971605030994928143e+01 3.801277465820312500e+02
2.974763791979182770e+01 3.817442626953125000e+02
2.977922552963437752e+01 3.862952270507812500e+02
2.981081313947692735e+01 3.898723144531250000e+02
2.984240074931947362e+01 3.886474609375000000e+02
2.987398835916201989e+01 3.916240234375000000e+02
2.990557596900456616e+01 3.916763000488281250e+02
2.993716357884711243e+01 3.938682250976562500e+02
2.996875118868965870e+01 3.994564514160156250e+02
3.000033879853220853e+01 4.028834533691406250e+02
3.003192640837475480e+01 4.050422363281250000e+02
3.006351401821730462e+01 4.103242187500000000e+02
3.009510162805985090e+01 4.097049255371093750e+02
3.012668923790239717e+01 4.107102050781250000e+02
3.015827684774494344e+01 4.121973876953125000e+02
3.018986445758748971e+01 4.148078308105468750e+02
3.022145206743003953e+01 4.175912780761718750e+02
3.025303967727258581e+01 4.213441772460937500e+02
3.028462728711513563e+01 4.267915954589843750e+02
3.031621489695768190e+01 4.311485900878906250e+02
3.034780250680022817e+01 4.343158569335937500e+02
3.037939011664277444e+01 4.382673645019531250e+02
3.041097772648532072e+01 4.418940734863281250e+02
3.044256533632786699e+01 4.440901489257812500e+02
3.047415294617041681e+01 4.477499389648437500e+02
3.050574055601296664e+01 4.503789672851562500e+02
3.053732816585551291e+01 4.556526184082031250e+02
3.056891577569805918e+01 4.642975463867187500e+02
3.060050338554060545e+01 4.675035095214843750e+02
3.063209099538315172e+01 4.724587707519531250e+02
3.066367860522569799e+01 4.782293090820312500e+02
3.069526621506824782e+01 4.825917053222656250e+02
3.072685382491079409e+01 4.871628112792968750e+02
3.075844143475334391e+01 4.952982177734375000e+02
3.079002904459589018e+01 5.012460327148437500e+02
3.082161665443843646e+01 5.034851989746093750e+02
3.085320426428098273e+01 5.099623718261718750e+02
3.088479187412352900e+01 5.167111816406250000e+02
3.091637948396607882e+01 5.214421386718750000e+02
3.094796709380862509e+01 5.289171142578125000e+02
3.097955470365117492e+01 5.354600219726562500e+02
3.101114231349372119e+01 5.414799194335937500e+02
3.104272992333626746e+01 5.495121459960937500e+02
3.107431753317881373e+01 5.565408935546875000e+02
3.110590514302136000e+01 5.644423828125000000e+02
3.113749275286390983e+01 5.699177246093750000e+02
3.116908036270645610e+01 5.765465087890625000e+02
3.120066797254900592e+01 5.816514892578125000e+02
3.123225558239155220e+01 5.869230957031250000e+02
3.126384319223409847e+01 5.900052490234375000e+02
3.129543080207664474e+01 5.951183471679687500e+02
3.132701841191919101e+01 6.025421752929687500e+02
3.135860602176173728e+01 6.093928222656250000e+02
3.139019363160428711e+01 6.122268066406250000e+02
3.142178124144683338e+01 6.140538330078125000e+02
3.145336885128938320e+01 6.167360839843750000e+02
3.148495646113192947e+01 6.214173583984375000e+02
3.151654407097447574e+01 6.227947998046875000e+02
3.154813168081702202e+01 6.193801269531250000e+02
3.157971929065956829e+01 6.165427856445312500e+02
3.161130690050211811e+01 6.126664428710937500e+02
3.164289451034466438e+01 6.130716552734375000e+02
3.167448212018721421e+01 6.141337890625000000e+02
3.170606973002976048e+01 6.114515380859375000e+02
3.173765733987230675e+01 6.079614868164062500e+02
3.176924494971485302e+01 6.041137084960937500e+02
3.180083255955739929e+01 5.986342163085937500e+02
3.183242016939994912e+01 5.928474731445312500e+02
3.186400777924249539e+01 5.881004638671875000e+02
3.189559538908504521e+01 5.840063476562500000e+02
3.192718299892759148e+01 5.748043823242187500e+02
3.195877060877013776e+01 5.644506835937500000e+02
3.199035821861268403e+01 5.587655029296875000e+02
3.202194582845523030e+01 5.486854858398437500e+02
3.205353343829777657e+01 5.418887329101562500e+02
3.208512104814032284e+01 5.349481201171875000e+02
3.211670865798286911e+01 5.265945434570312500e+02
3.214829626782542249e+01 5.194243774414062500e+02
3.217988387766796876e+01 5.100523986816406250e+02
3.221147148751051503e+01 5.005893859863281250e+02
3.224305909735306130e+01 4.914474792480468750e+02
3.227464670719560758e+01 4.819984436035156250e+02
3.230623431703816095e+01 4.756997680664062500e+02
3.233782192688070722e+01 4.669080810546875000e+02
3.236940953672325350e+01 4.590087280273437500e+02
3.240099714656579977e+01 4.497806701660156250e+02
3.243258475640834604e+01 4.412920227050781250e+02
3.246417236625089231e+01 4.357872009277343750e+02
3.249575997609343858e+01 4.274549255371093750e+02
3.252734758593598485e+01 4.204613342285156250e+02
3.255893519577853112e+01 4.148059997558593750e+02
3.259052280562108450e+01 4.064176940917968750e+02
3.262211041546363077e+01 4.008466491699218750e+02
3.265369802530617704e+01 3.960045471191406250e+02
3.268528563514872332e+01 3.879787597656250000e+02
3.271687324499126959e+01 3.824592285156250000e+02
3.274846085483381586e+01 3.771425476074218750e+02
3.278004846467636924e+01 3.738973693847656250e+02
3.281163607451891551e+01 3.700096435546875000e+02
3.284322368436146178e+01 3.663892211914062500e+02
3.287481129420400805e+01 3.621887207031250000e+02
3.290639890404655432e+01 3.583805847167968750e+02
3.293798651388910059e+01 3.526505126953125000e+02
3.296957412373164686e+01 3.493405456542968750e+02
3.300116173357419314e+01 3.461163330078125000e+02
3.303274934341673941e+01 3.447325439453125000e+02
3.306433695325929278e+01 3.365229187011718750e+02
3.309592456310183906e+01 3.330645446777343750e+02
3.312751217294438533e+01 3.315310363769531250e+02
3.315909978278693160e+01 3.299715881347656250e+02
3.319068739262947787e+01 3.267717285156250000e+02
3.322227500247203125e+01 3.252334594726562500e+02
3.325386261231457752e+01 3.219051818847656250e+02
3.328545022215712379e+01 3.189009704589843750e+02
3.331703783199967006e+01 3.160595092773437500e+02
3.334862544184221633e+01 3.140805358886718750e+02
3.338021305168476260e+01 3.143402404785156250e+02
3.341180066152730888e+01 3.078433227539062500e+02
3.344338827136985515e+01 3.076885375976562500e+02
3.347497588121240142e+01 3.073296813964843750e+02
3.350656349105495480e+01 3.031356506347656250e+02
3.353815110089750107e+01 3.007930908203125000e+02
3.356973871074004734e+01 3.005803833007812500e+02
3.360132632058259361e+01 3.009366455078125000e+02
3.363291393042513988e+01 3.017117004394531250e+02
3.366450154026769326e+01 3.003915100097656250e+02
3.369608915011023953e+01 3.023303833007812500e+02
3.372767675995278580e+01 3.016038513183593750e+02
3.375926436979533207e+01 2.949911193847656250e+02
3.379085197963787834e+01 2.895195922851562500e+02
3.382243958948042462e+01 2.853723144531250000e+02
3.385402719932297089e+01 2.808124084472656250e+02
3.388561480916551716e+01 2.783571472167968750e+02
3.391720241900806343e+01 2.780417480468750000e+02
3.394879002885060970e+01 2.742628173828125000e+02
3.398037763869315597e+01 2.743451232910156250e+02
3.401196524853570935e+01 2.730574645996093750e+02
3.404355285837825562e+01 2.724949951171875000e+02
3.407514046822080189e+01 2.707273864746093750e+02
3.410672807806334816e+01 2.708633117675781250e+02
3.413831568790590154e+01 2.707018127441406250e+02
3.416990329774844781e+01 2.686572570800781250e+02
3.420149090759099408e+01 2.683334960937500000e+02
3.423307851743354036e+01 2.677758483886718750e+02
3.426466612727608663e+01 2.670462951660156250e+02
3.429625373711863290e+01 2.653075866699218750e+02
3.432784134696117917e+01 2.614247131347656250e+02
3.435942895680372544e+01 2.620567016601562500e+02
3.439101656664627171e+01 2.630978698730468750e+02
3.442260417648881798e+01 2.599205932617187500e+02
3.445419178633136426e+01 2.559860229492187500e+02
3.448577939617391763e+01 2.548101654052734375e+02
3.451736700601646390e+01 2.568321533203125000e+02
3.454895461585901018e+01 2.529902496337890625e+02
3.458054222570156355e+01 2.493265838623046875e+02
3.461212983554410982e+01 2.513988189697265625e+02
3.464371744538665610e+01 2.497626647949218750e+02
3.467530505522920237e+01 2.435956420898437500e+02
3.470689266507174864e+01 2.397222137451171875e+02
3.473848027491429491e+01 2.430882263183593750e+02
3.477006788475684118e+01 2.415731811523437500e+02
3.480165549459938745e+01 2.401147460937500000e+02
3.483324310444193372e+01 2.404426574707031250e+02
3.486483071428448000e+01 2.405105438232421875e+02
3.489641832412702627e+01 2.345404357910156250e+02
3.492800593396957964e+01 2.328286743164062500e+02
3.495959354381212592e+01 2.300393981933593750e+02
3.499118115365467219e+01 2.309583740234375000e+02
3.502276876349721846e+01 2.311206817626953125e+02
3.505435637333977184e+01 2.271959838867187500e+02
3.508594398318231811e+01 2.390205688476562500e+02
3.511753159302486438e+01 2.522116699218750000e+02
3.514911920286741065e+01 2.578295898437500000e+02
3.518070681270995692e+01 2.551466064453125000e+02
3.521229442255250319e+01 2.558885040283203125e+02
3.524388203239504946e+01 2.515779876708984375e+02
3.527546964223759574e+01 2.503955841064453125e+02
3.530705725208014201e+01 2.490653381347656250e+02
3.533864486192268828e+01 2.450590515136718750e+02
3.537023247176523455e+01 2.453845062255859375e+02
3.540182008160778793e+01 2.443793792724609375e+02
3.543340769145033420e+01 2.412659912109375000e+02
3.546499530129288047e+01 2.400923614501953125e+02
3.549658291113542674e+01 2.408130340576171875e+02
3.552817052097798012e+01 2.415351409912109375e+02
3.555975813082052639e+01 2.411069946289062500e+02
3.559134574066307266e+01 2.404247436523437500e+02
3.562293335050561893e+01 2.397654266357421875e+02
3.565452096034816520e+01 2.384937438964843750e+02
3.568610857019071148e+01 2.371823425292968750e+02
3.571769618003325775e+01 2.322841796875000000e+02
3.574928378987580402e+01 2.308669281005859375e+02
3.578087139971835029e+01 2.315340728759765625e+02
3.581245900956089656e+01 2.302005615234375000e+02
3.584404661940344994e+01 2.281576995849609375e+02
3.587563422924599621e+01 2.271174774169921875e+02
3.590722183908854248e+01 2.283006591796875000e+02
3.593880944893108875e+01 2.288347473144531250e+02
3.597039705877364213e+01 2.263218231201171875e+02
3.600198466861618840e+01 2.246647338867187500e+02
3.603357227845873467e+01 2.257484588623046875e+02
3.606515988830128094e+01 2.256493072509765625e+02
3.609674749814382722e+01 2.239153442382812500e+02
3.612833510798637349e+01 2.249430389404296875e+02
3.615992271782891976e+01 2.258265228271484375e+02
3.619151032767146603e+01 2.237008056640625000e+02
3.622309793751401230e+01 2.234536437988281250e+02
3.625468554735655857e+01 2.220476837158203125e+02
3.628627315719910484e+01 2.183248901367187500e+02
3.631786076704165822e+01 2.185461273193359375e+02
3.634944837688420449e+01 2.210240936279296875e+02
3.638103598672675076e+01 2.172687377929687500e+02
3.641262359656929704e+01 2.183668212890625000e+02
3.644421120641185041e+01 2.189223937988281250e+02
3.647579881625439668e+01 2.167279815673828125e+02
3.650738642609694296e+01 2.144518432617187500e+02
3.653897403593948923e+01 2.148403167724609375e+02
3.657056164578203550e+01 2.166272888183593750e+02
3.660214925562458177e+01 2.165606842041015625e+02
3.663373686546712804e+01 2.176874084472656250e+02
3.666532447530967431e+01 2.158857421875000000e+02
3.669691208515222058e+01 2.146605529785156250e+02
3.672849969499476686e+01 2.133380889892578125e+02
3.676008730483731313e+01 2.108786010742187500e+02
3.679167491467986650e+01 2.138227386474609375e+02
3.682326252452241278e+01 2.141719360351562500e+02
3.685485013436495905e+01 2.114115142822265625e+02
3.688643774420751242e+01 2.136970520019531250e+02
3.691802535405005870e+01 2.157728729248046875e+02
3.694961296389260497e+01 2.137436828613281250e+02
3.698120057373515124e+01 2.110261230468750000e+02
3.701278818357769751e+01 2.084323272705078125e+02
3.704437579342024378e+01 2.082956848144531250e+02
3.707596340326279005e+01 2.087670898437500000e+02
3.710755101310533632e+01 2.080056152343750000e+02
3.713913862294788260e+01 2.054883270263671875e+02
3.717072623279042887e+01 2.082879943847656250e+02
3.720231384263297514e+01 2.098097076416015625e+02
3.723390145247552852e+01 2.058007354736328125e+02
3.726548906231807479e+01 2.059063568115234375e+02
3.729707667216062106e+01 2.039150238037109375e+02
3.732866428200316733e+01 2.012846374511718750e+02
3.736025189184572071e+01 2.027011108398437500e+02
3.739183950168826698e+01 2.023984832763671875e+02
3.742342711153081325e+01 2.027179107666015625e+02
3.745501472137335952e+01 2.017840881347656250e+02
3.748660233121590579e+01 2.005741729736328125e+02
3.751818994105845206e+01 2.005731506347656250e+02
3.754977755090099834e+01 1.998663787841796875e+02
3.758136516074354461e+01 1.964865264892578125e+02
3.761295277058609088e+01 1.963178863525390625e+02
3.764454038042863715e+01 1.975541381835937500e+02
3.767612799027118342e+01 1.963301086425781250e+02
3.770771560011373680e+01 1.969885559082031250e+02
3.773930320995628307e+01 1.949066619873046875e+02
3.777089081979882934e+01 1.943144226074218750e+02
3.780247842964137561e+01 1.943473663330078125e+02
3.783406603948392899e+01 1.930646667480468750e+02
3.786565364932647526e+01 1.908691101074218750e+02
3.789724125916902153e+01 1.912638549804687500e+02
3.792882886901156780e+01 1.907129058837890625e+02
3.796041647885411408e+01 1.898990783691406250e+02
3.799200408869666035e+01 1.891044616699218750e+02
3.802359169853920662e+01 1.884389648437500000e+02
3.805517930838175289e+01 1.863626251220703125e+02
3.808676691822429916e+01 1.857720794677734375e+02
3.811835452806684543e+01 1.852374114990234375e+02
3.814994213790939170e+01 1.857007141113281250e+02
3.818152974775194508e+01 1.836233520507812500e+02
3.821311735759449135e+01 1.813661804199218750e+02
3.824470496743703762e+01 1.802837524414062500e+02
3.827629257727959100e+01 1.790370788574218750e+02
3.830788018712213727e+01 1.821209411621093750e+02
3.833946779696468354e+01 1.836785278320312500e+02
3.837105540680722982e+01 1.820314483642578125e+02
3.840264301664977609e+01 1.807209472656250000e+02
3.843423062649232236e+01 1.790610809326171875e+02
3.846581823633486863e+01 1.801458587646484375e+02
3.849740584617741490e+01 1.813596801757812500e+02
3.852899345601996117e+01 1.799197387695312500e+02
3.856058106586250744e+01 1.788962860107421875e+02
3.859216867570505372e+01 1.793249359130859375e+02
3.862375628554760709e+01 1.771406555175781250e+02
3.865534389539015336e+01 1.770169219970703125e+02
3.868693150523269964e+01 1.762524414062500000e+02
3.871851911507524591e+01 1.750279998779296875e+02
3.875010672491779928e+01 1.746547546386718750e+02
3.878169433476034555e+01 1.739980010986328125e+02
3.881328194460289183e+01 1.709580993652343750e+02
3.884486955444543810e+01 1.703648529052734375e+02
3.887645716428798437e+01 1.715018463134765625e+02
3.890804477413053064e+01 1.716253356933593750e+02
3.893963238397307691e+01 1.696111450195312500e+02
3.897121999381562318e+01 1.699774780273437500e+02
3.900280760365816946e+01 1.685304718017578125e+02
3.903439521350071573e+01 1.682488250732421875e+02
3.906598282334326200e+01 1.688010559082031250e+02
3.909757043318581538e+01 1.676218566894531250e+02
3.912915804302836165e+01 1.672246398925781250e+02
3.916074565287090792e+01 1.676950683593750000e+02
3.919233326271345419e+01 1.681268615722656250e+02
3.922392087255600757e+01 1.681761627197265625e+02
3.925550848239855384e+01 1.658296051025390625e+02
3.928709609224110011e+01 1.670706481933593750e+02
3.931868370208364638e+01 1.676417083740234375e+02
3.935027131192619265e+01 1.702984008789062500e+02
3.938185892176873892e+01 1.664947967529296875e+02
3.941344653161128520e+01 1.658661651611328125e+02
3.944503414145383147e+01 1.656143341064453125e+02
3.947662175129637774e+01 1.643454437255859375e+02
3.950820936113892401e+01 1.638361358642578125e+02
3.953979697098147028e+01 1.662697601318359375e+02
3.957138458082402366e+01 1.617420501708984375e+02
3.960297219066656993e+01 1.603588867187500000e+02
3.963455980050911620e+01 1.627797698974609375e+02
3.966614741035166958e+01 1.636555633544921875e+02
3.969773502019421585e+01 1.619936828613281250e+02
3.972932263003676212e+01 1.610883789062500000e+02
3.976091023987930839e+01 1.611279144287109375e+02
3.979249784972185466e+01 1.622131958007812500e+02
3.982408545956440094e+01 1.612002716064453125e+02
3.985567306940694721e+01 1.617404785156250000e+02
3.988726067924949348e+01 1.603255310058593750e+02
3.991884828909203975e+01 1.616869659423828125e+02
3.995043589893458602e+01 1.613287658691406250e+02
3.998202350877713229e+01 1.594230651855468750e+02
4.001361111861968567e+01 1.584968414306640625e+02
4.004519872846223194e+01 1.586305694580078125e+02
4.007678633830477821e+01 1.592788543701171875e+02
4.010837394814732448e+01 1.586366882324218750e+02
4.013996155798987786e+01 1.601413574218750000e+02
4.017154916783242413e+01 1.583085021972656250e+02
4.020313677767497040e+01 1.579399566650390625e+02
4.023472438751751667e+01 1.588219604492187500e+02
4.026631199736006295e+01 1.568628845214843750e+02
4.029789960720260922e+01 1.566026000976562500e+02
4.032948721704515549e+01 1.566898040771484375e+02
4.036107482688770176e+01 1.571849060058593750e+02
4.039266243673024803e+01 1.566702270507812500e+02
4.042425004657279430e+01 1.566114349365234375e+02
4.045583765641534058e+01 1.549753723144531250e+02
4.048742526625789395e+01 1.558625793457031250e+02
4.051901287610044022e+01 1.568141326904296875e+02
4.055060048594298650e+01 1.537674255371093750e+02
4.058218809578553987e+01 1.542084655761718750e+02
4.061377570562808614e+01 1.564935302734375000e+02
4.064536331547063241e+01 1.604308929443359375e+02
4.067695092531317869e+01 1.588361816406250000e+02
4.070853853515572496e+01 1.558134765625000000e+02
4.074012614499827123e+01 1.552387237548828125e+02
4.077171375484081750e+01 1.574216003417968750e+02
4.080330136468336377e+01 1.592976226806640625e+02
4.083488897452591004e+01 1.591050415039062500e+02
4.086647658436845632e+01 1.572166137695312500e+02
4.089806419421100259e+01 1.573434448242187500e+02
4.092965180405355596e+01 1.583892974853515625e+02
4.096123941389610223e+01 1.592816162109375000e+02
4.099282702373864851e+01 1.568974609375000000e+02
4.102441463358119478e+01 1.559507598876953125e+02
4.105600224342374815e+01 1.548061828613281250e+02
4.108758985326629443e+01 1.520284881591796875e+02
4.111917746310884070e+01 1.542254028320312500e+02
4.115076507295138697e+01 1.563005218505859375e+02
4.118235268279393324e+01 1.562135772705078125e+02
4.121394029263647951e+01 1.557884521484375000e+02
4.124552790247902578e+01 1.547457275390625000e+02
4.127711551232157206e+01 1.537731323242187500e+02
4.130870312216411833e+01 1.532918243408203125e+02
4.134029073200666460e+01 1.545346221923828125e+02
4.137187834184921087e+01 1.525502624511718750e+02
4.140346595169176425e+01 1.533623809814453125e+02
4.143505356153431052e+01 1.550528869628906250e+02
4.146664117137685679e+01 1.547356872558593750e+02
4.149822878121940306e+01 1.522492980957031250e+02
4.152981639106195644e+01 1.544730377197265625e+02
4.156140400090450271e+01 1.563235626220703125e+02
4.159299161074704898e+01 1.567530212402343750e+02
4.162457922058959525e+01 1.532704467773437500e+02
4.165616683043214152e+01 1.514364624023437500e+02
4.168775444027468779e+01 1.489631195068359375e+02
4.171934205011723407e+01 1.469057312011718750e+02
4.175092965995978034e+01 1.477422790527343750e+02
4.178251726980232661e+01 1.512027282714843750e+02
4.181410487964487288e+01 1.486474304199218750e+02
4.184569248948741915e+01 1.467771453857421875e+02
4.187728009932997253e+01 1.467796173095703125e+02
4.190886770917251880e+01 1.544031677246093750e+02
4.194045531901506507e+01 1.560713958740234375e+02
4.197204292885761845e+01 1.528280181884765625e+02
4.200363053870016472e+01 1.520634460449218750e+02
4.203521814854271099e+01 1.461864318847656250e+02
4.206680575838525726e+01 1.468033294677734375e+02
4.209839336822780353e+01 1.481477203369140625e+02
4.212998097807034981e+01 1.488285064697265625e+02
4.216156858791289608e+01 1.494679718017578125e+02
4.219315619775544235e+01 1.472655029296875000e+02
4.222474380759798862e+01 1.463429412841796875e+02
4.225633141744053489e+01 1.476837158203125000e+02
4.228791902728308116e+01 1.431667327880859375e+02
4.231950663712563454e+01 1.421093444824218750e+02
4.235109424696818081e+01 1.440966339111328125e+02
4.238268185681072708e+01 1.487928924560546875e+02
4.241426946665327335e+01 1.441671600341796875e+02
4.244585707649582673e+01 1.395328216552734375e+02
4.247744468633837300e+01 1.407276611328125000e+02
4.250903229618091927e+01 1.439749450683593750e+02
4.254061990602346555e+01 1.461779327392578125e+02
4.257220751586601182e+01 1.443184661865234375e+02
4.260379512570855809e+01 1.424242248535156250e+02
4.263538273555110436e+01 1.428636932373046875e+02
4.266697034539365063e+01 1.410756530761718750e+02
4.269855795523619690e+01 1.424650726318359375e+02
4.273014556507874318e+01 1.417644042968750000e+02
4.276173317492128945e+01 1.392002258300781250e+02
4.279332078476384282e+01 1.416091003417968750e+02
4.282490839460638909e+01 1.413013610839843750e+02
4.285649600444893537e+01 1.404196472167968750e+02
4.288808361429148164e+01 1.400793762207031250e+02
4.291967122413403501e+01 1.416380310058593750e+02
4.295125883397658129e+01 1.419685668945312500e+02
4.298284644381912756e+01 1.399420166015625000e+02
4.301443405366167383e+01 1.389303894042968750e+02
4.304602166350422010e+01 1.390182342529296875e+02
4.307760927334676637e+01 1.405660858154296875e+02
4.310919688318931264e+01 1.405776062011718750e+02
4.314078449303185891e+01 1.404518585205078125e+02
4.317237210287440519e+01 1.417102508544921875e+02
4.320395971271695146e+01 1.436030883789062500e+02
4.323554732255949773e+01 1.419039611816406250e+02
4.326713493240205111e+01 1.404385986328125000e+02
4.329872254224459738e+01 1.396763153076171875e+02
4.333031015208714365e+01 1.385941009521484375e+02
4.336189776192969703e+01 1.402205505371093750e+02
4.339348537177224330e+01 1.409787902832031250e+02
4.342507298161478957e+01 1.424962005615234375e+02
4.345666059145733584e+01 1.429905853271484375e+02
4.348824820129988211e+01 1.444878692626953125e+02
4.351983581114242838e+01 1.447789764404296875e+02
4.355142342098497465e+01 1.453064422607421875e+02
4.358301103082752093e+01 1.412716979980468750e+02
4.361459864067006720e+01 1.388994445800781250e+02
4.364618625051261347e+01 1.390138549804687500e+02
4.367777386035515974e+01 1.405233154296875000e+02
4.370936147019771312e+01 1.398674011230468750e+02
4.374094908004025939e+01 1.413718719482421875e+02
4.377253668988280566e+01 1.406179809570312500e+02
4.380412429972535193e+01 1.414872589111328125e+02
4.383571190956790531e+01 1.401632537841796875e+02
4.386729951941045158e+01 1.395787506103515625e+02
4.389888712925299785e+01 1.394843750000000000e+02
4.393047473909554412e+01 1.394930114746093750e+02
4.396206234893809039e+01 1.390922851562500000e+02
4.399364995878063667e+01 1.409713745117187500e+02
4.402523756862318294e+01 1.389572448730468750e+02
4.405682517846572921e+01 1.376597747802734375e+02
4.408841278830827548e+01 1.389699401855468750e+02
4.412000039815082175e+01 1.369470367431640625e+02
4.415158800799336802e+01 1.356534881591796875e+02
4.418317561783592140e+01 1.361306457519531250e+02
4.421476322767846767e+01 1.378725738525390625e+02
4.424635083752101394e+01 1.384643707275390625e+02
4.427793844736356732e+01 1.389293060302734375e+02
4.430952605720611359e+01 1.359324340820312500e+02
4.434111366704865986e+01 1.387839813232421875e+02
4.437270127689120613e+01 1.388568572998046875e+02
4.440428888673375241e+01 1.379016418457031250e+02
4.443587649657629868e+01 1.382382659912109375e+02
4.446746410641884495e+01 1.404721984863281250e+02
4.449905171626139122e+01 1.386806182861328125e+02
4.453063932610393749e+01 1.338478088378906250e+02
4.456222693594648376e+01 1.356798706054687500e+02
4.459381454578903003e+01 1.362801055908203125e+02
4.462540215563158341e+01 1.351342315673828125e+02
4.465698976547412968e+01 1.360513458251953125e+02
4.468857737531667595e+01 1.379606170654296875e+02
4.472016498515922223e+01 1.369412231445312500e+02
4.475175259500177560e+01 1.361684417724609375e+02
4.478334020484432187e+01 1.337225189208984375e+02
4.481492781468686815e+01 1.328210754394531250e+02
4.484651542452941442e+01 1.340958404541015625e+02
4.487810303437196069e+01 1.351001739501953125e+02
4.490969064421450696e+01 1.355546875000000000e+02
4.494127825405705323e+01 1.356298828125000000e+02
4.497286586389959950e+01 1.350840148925781250e+02
4.500445347374214577e+01 1.312430877685546875e+02
4.503604108358469205e+01 1.344835815429687500e+02
4.506762869342723832e+01 1.357152252197265625e+02
4.509921630326979169e+01 1.336208343505859375e+02
4.513080391311233797e+01 1.349829101562500000e+02
4.516239152295488424e+01 1.339149322509765625e+02
4.519397913279743051e+01 1.315947265625000000e+02
4.522556674263998389e+01 1.317445831298828125e+02
4.525715435248253016e+01 1.309296417236328125e+02
4.528874196232507643e+01 1.312604217529296875e+02
4.532032957216762270e+01 1.311502227783203125e+02
4.535191718201016897e+01 1.311107482910156250e+02
4.538350479185271524e+01 1.318418273925781250e+02
4.541509240169526151e+01 1.323967590332031250e+02
4.544668001153780779e+01 1.323786926269531250e+02
4.547826762138035406e+01 1.311084442138671875e+02
4.550985523122290033e+01 1.297723846435546875e+02
4.554144284106544660e+01 1.321470794677734375e+02
4.557303045090799998e+01 1.309357604980468750e+02
4.560461806075054625e+01 1.297617492675781250e+02
4.563620567059309252e+01 1.303952484130859375e+02
4.566779328043564590e+01 1.315756988525390625e+02
4.569938089027819217e+01 1.280328979492187500e+02
4.573096850012073844e+01 1.306439666748046875e+02
4.576255610996328471e+01 1.311390838623046875e+02
4.579414371980583098e+01 1.294464416503906250e+02
4.582573132964837725e+01 1.276236267089843750e+02
4.585731893949092353e+01 1.297951202392578125e+02
4.588890654933346980e+01 1.302055358886718750e+02
4.592049415917601607e+01 1.314934844970703125e+02
4.595208176901856234e+01 1.300567169189453125e+02
4.598366937886110861e+01 1.277149810791015625e+02
4.601525698870366199e+01 1.322409210205078125e+02
4.604684459854620826e+01 1.309652252197265625e+02
4.607843220838875453e+01 1.301211242675781250e+02
4.611001981823130080e+01 1.312829132080078125e+02
4.614160742807385418e+01 1.282706604003906250e+02
4.617319503791640045e+01 1.276618576049804688e+02
4.620478264775894672e+01 1.290882110595703125e+02
4.623637025760149299e+01 1.295235137939453125e+02
4.626795786744403927e+01 1.344046020507812500e+02
4.629954547728658554e+01 1.334504547119140625e+02
4.633113308712913181e+01 1.326464080810546875e+02
4.636272069697167808e+01 1.325097503662109375e+02
4.639430830681422435e+01 1.328321228027343750e+02
4.642589591665677062e+01 1.353357696533203125e+02
4.645748352649931689e+01 1.353753204345703125e+02
4.648907113634187027e+01 1.351524505615234375e+02
4.652065874618441654e+01 1.341097106933593750e+02
4.655224635602696281e+01 1.335652465820312500e+02
4.658383396586950909e+01 1.346679534912109375e+02
4.661542157571206246e+01 1.346432952880859375e+02
4.664700918555460873e+01 1.337127838134765625e+02
4.667859679539715501e+01 1.336515350341796875e+02
4.671018440523970128e+01 1.341134490966796875e+02
4.674177201508224755e+01 1.336650543212890625e+02
4.677335962492479382e+01 1.373408355712890625e+02
4.680494723476734009e+01 1.356808013916015625e+02
4.683653484460988636e+01 1.336552581787109375e+02
4.686812245445243263e+01 1.370336761474609375e+02
4.689971006429497891e+01 1.361026000976562500e+02
4.693129767413752518e+01 1.375630035400390625e+02
4.696288528398007855e+01 1.390216674804687500e+02
4.699447289382262483e+01 1.365235900878906250e+02
4.702606050366517110e+01 1.353016815185546875e+02
4.705764811350772447e+01 1.377355957031250000e+02
4.708923572335027075e+01 1.367918853759765625e+02
4.712082333319281702e+01 1.368441467285156250e+02
4.715241094303536329e+01 1.383062133789062500e+02
4.718399855287790956e+01 1.357673645019531250e+02
4.721558616272045583e+01 1.388689575195312500e+02
4.724717377256300210e+01 1.384614715576171875e+02
4.727876138240554837e+01 1.369230041503906250e+02
4.731034899224809465e+01 1.366922454833984375e+02
4.734193660209064092e+01 1.412915039062500000e+02
4.737352421193318719e+01 1.424299163818359375e+02
4.740511182177574057e+01 1.453132476806640625e+02
4.743669943161828684e+01 1.406829681396484375e+02
4.746828704146083311e+01 1.334752655029296875e+02
4.749987465130337938e+01 1.356672668457031250e+02
4.753146226114593276e+01 1.345834045410156250e+02
4.756304987098847903e+01 1.301577148437500000e+02
4.759463748083102530e+01 1.319758453369140625e+02
4.762622509067357157e+01 1.307177581787109375e+02
4.765781270051611784e+01 1.284323730468750000e+02
4.768940031035866411e+01 1.281794128417968750e+02
4.772098792020121039e+01 1.245492248535156250e+02
4.775257553004375666e+01 1.243172988891601562e+02
4.778416313988630293e+01 1.247031402587890625e+02
4.781575074972884920e+01 1.231609039306640625e+02
4.784733835957139547e+01 1.203288574218750000e+02
4.787892596941394885e+01 1.203066558837890625e+02
4.791051357925649512e+01 1.215684432983398438e+02
4.794210118909904139e+01 1.192519912719726562e+02
4.797368879894158766e+01 1.179882812500000000e+02
4.800527640878414104e+01 1.171793518066406250e+02
4.803686401862668731e+01 1.179702148437500000e+02
4.806845162846923358e+01 1.168147964477539062e+02
4.810003923831177985e+01 1.165323486328125000e+02
4.813162684815432613e+01 1.136532516479492188e+02
4.816321445799687240e+01 1.114185562133789062e+02
4.819480206783941867e+01 1.173010177612304688e+02
4.822638967768196494e+01 1.178441925048828125e+02
4.825797728752451121e+01 1.218121109008789062e+02
4.828956489736705748e+01 1.181274642944335938e+02
4.832115250720961086e+01 1.132271118164062500e+02
4.835274011705215713e+01 1.118565826416015625e+02
4.838432772689470340e+01 1.128042984008789062e+02
4.841591533673724967e+01 1.129417266845703125e+02
4.844750294657980305e+01 1.164451370239257812e+02
4.847909055642234932e+01 1.162256164550781250e+02
4.851067816626489559e+01 1.201050109863281250e+02
4.854226577610744187e+01 1.191026306152343750e+02
4.857385338594998814e+01 1.184059143066406250e+02
4.860544099579253441e+01 1.180135803222656250e+02
4.863702860563508068e+01 1.175090789794921875e+02
4.866861621547762695e+01 1.192173080444335938e+02
4.870020382532017322e+01 1.265437469482421875e+02
4.873179143516271949e+01 1.216597824096679688e+02
4.876337904500526577e+01 1.218036956787109375e+02
4.879496665484781914e+01 1.188286132812500000e+02
4.882655426469036541e+01 1.174050979614257812e+02
4.885814187453291169e+01 1.092507324218750000e+02
4.888972948437545796e+01 1.091993637084960938e+02
4.892131709421801133e+01 1.132945404052734375e+02
4.895290470406055761e+01 1.244619598388671875e+02
4.898449231390310388e+01 1.160690231323242188e+02
4.901607992374565015e+01 1.269076461791992188e+02
4.904766753358819642e+01 1.305045318603515625e+02
4.907925514343074269e+01 1.217392883300781250e+02
4.911084275327328896e+01 1.401828765869140625e+02
4.914243036311583523e+01 1.721513671875000000e+02
4.917401797295838151e+01 1.849925537109375000e+02
4.920560558280093488e+01 1.960697937011718750e+02
