1.739858901165669280e+01 2.133887023925781250e+02
1.742989809589733241e+01 2.063519897460937500e+02
1.746120718013797557e+01 2.071207580566406250e+02
1.749251626437861518e+01 2.028116912841796875e+02
1.752382534861925834e+01 1.969374847412109375e+02
1.755513443285989794e+01 1.979117279052734375e+02
1.758644351710054110e+01 1.982076721191406250e+02
1.761775260134118071e+01 1.976919708251953125e+02
1.764906168558182387e+01 1.966833648681640625e+02
1.768037076982246347e+01 1.917084503173828125e+02
1.771167985406310663e+01 1.856046142578125000e+02
1.774298893830374624e+01 1.837949218750000000e+02
1.777429802254438940e+01 1.867070465087890625e+02
1.780560710678502900e+01 1.849491119384765625e+02
1.783691619102567216e+01 1.782001495361328125e+02
1.786822527526631177e+01 1.778365631103515625e+02
1.789953435950695493e+01 1.787787017822265625e+02
1.793084344374759453e+01 1.748963317871093750e+02
1.796215252798823769e+01 1.783623199462890625e+02
1.799346161222887730e+01 1.788265228271484375e+02
1.802477069646951691e+01 1.760518646240234375e+02
1.805607978071016007e+01 1.770419616699218750e+02
1.808738886495079967e+01 1.782024688720703125e+02
1.811869794919144283e+01 1.749611358642578125e+02
1.815000703343208244e+01 1.763366088867187500e+02
1.818131611767272560e+01 1.735662078857421875e+02
1.821262520191336520e+01 1.735078430175781250e+02
1.824393428615400836e+01 1.795443420410156250e+02
1.827524337039464797e+01 1.792461395263671875e+02
1.830655245463529113e+01 1.799545593261718750e+02
1.833786153887593073e+01 1.818973693847656250e+02
1.836917062311657389e+01 1.775963897705078125e+02
1.840047970735721350e+01 1.775534057617187500e+02
1.843178879159785666e+01 1.787489471435546875e+02
1.846309787583849626e+01 1.775613708496093750e+02
1.849440696007913942e+01 1.769365081787109375e+02
1.852571604431977903e+01 1.791393127441406250e+02
1.855702512856041864e+01 1.776037597656250000e+02
1.858833421280106180e+01 1.784179534912109375e+02
1.861964329704170140e+01 1.777491302490234375e+02
1.865095238128234456e+01 1.765521545410156250e+02
1.868226146552298417e+01 1.754036102294921875e+02
1.871357054976362733e+01 1.738622894287109375e+02
1.874487963400426693e+01 1.745867309570312500e+02
1.877618871824491009e+01 1.748398895263671875e+02
1.880749780248554970e+01 1.751012115478515625e+02
1.883880688672619286e+01 1.758930664062500000e+02
1.887011597096683246e+01 1.756750030517578125e+02
1.890142505520747562e+01 1.734022674560546875e+02
1.893273413944811523e+01 1.730122985839843750e+02
1.896404322368875839e+01 1.739622650146484375e+02
1.899535230792939799e+01 1.735652618408203125e+02
1.902666139217004115e+01 1.755764007568359375e+02
1.905797047641068076e+01 1.767034759521484375e+02
1.908927956065132037e+01 1.720598144531250000e+02
1.912058864489196353e+01 1.715430145263671875e+02
1.915189772913260668e+01 1.742947235107421875e+02
1.918320681337324629e+01 1.730015411376953125e+02
1.921451589761388590e+01 1.714267578125000000e+02
1.924582498185452906e+01 1.713840332031250000e+02
1.927713406609516866e+01 1.738104553222656250e+02
1.930844315033581182e+01 1.751812438964843750e+02
1.933975223457645143e+01 1.768661804199218750e+02
1.937106131881709459e+01 1.789063110351562500e+02
1.940237040305773419e+01 1.779131774902343750e+02
1.943367948729837735e+01 1.773621063232421875e+02
1.946498857153901696e+01 1.805772552490234375e+02
1.949629765577966012e+01 1.802741394042968750e+02
1.952760674002029972e+01 1.790827178955078125e+02
1.955891582426094288e+01 1.771792144775390625e+02
1.959022490850158249e+01 1.774813690185546875e+02
1.962153399274222210e+01 1.756662597656250000e+02
1.965284307698286526e+01 1.808612670898437500e+02
1.968415216122350841e+01 1.826258392333984375e+02
1.971546124546414802e+01 1.826310119628906250e+02
1.974677032970478763e+01 1.788022003173828125e+02
1.977807941394543079e+01 1.797895660400390625e+02
1.980938849818607039e+01 1.785011138916015625e+02
1.984069758242671355e+01 1.794042968750000000e+02
1.987200666666735316e+01 1.806137237548828125e+02
1.990331575090799632e+01 1.793664550781250000e+02
1.993462483514863592e+01 1.793674621582031250e+02
1.996593391938927908e+01 1.802335205078125000e+02
1.999724300362991869e+01 1.792807464599609375e+02
2.002855208787056185e+01 1.784335632324218750e+02
2.005986117211120145e+01 1.809222259521484375e+02
2.009117025635184461e+01 1.833360748291015625e+02
2.012247934059248422e+01 1.819186706542968750e+02
2.015378842483312738e+01 1.786800842285156250e+02
2.018509750907376699e+01 1.805592498779296875e+02
2.021640659331441015e+01 1.804866027832031250e+02
2.024771567755504975e+01 1.832635498046875000e+02
2.027902476179568936e+01 1.828625793457031250e+02
2.031033384603633252e+01 1.812900543212890625e+02
2.034164293027697212e+01 1.798407287597656250e+02
2.037295201451761528e+01 1.805804748535156250e+02
2.040426109875825489e+01 1.804839172363281250e+02
2.043557018299889805e+01 1.796253356933593750e+02
2.046687926723953765e+01 1.803595581054687500e+02
2.049818835148018081e+01 1.795531768798828125e+02
2.052949743572082042e+01 1.795943298339843750e+02
2.056080651996146358e+01 1.799911804199218750e+02
2.059211560420210319e+01 1.805699310302734375e+02
2.062342468844274634e+01 1.829850616455078125e+02
2.065473377268338595e+01 1.837185211181640625e+02
2.068604285692402911e+01 1.821972808837890625e+02
2.071735194116466872e+01 1.817782897949218750e+02
2.074866102540531188e+01 1.842396850585937500e+02
2.077997010964595148e+01 1.850337371826171875e+02
2.081127919388659109e+01 1.828862609863281250e+02
2.084258827812723425e+01 1.816822052001953125e+02
2.087389736236787741e+01 1.822943420410156250e+02
2.090520644660851701e+01 1.833613891601562500e+02
2.093651553084915662e+01 1.850986633300781250e+02
2.096782461508979978e+01 1.868345794677734375e+02
2.099913369933043938e+01 1.860341491699218750e+02
2.103044278357108254e+01 1.846048583984375000e+02
2.106175186781172215e+01 1.855771636962890625e+02
2.109306095205236531e+01 1.863439788818359375e+02
2.112437003629300492e+01 1.844810943603515625e+02
2.115567912053364807e+01 1.836242980957031250e+02
2.118698820477428768e+01 1.842126312255859375e+02
2.121829728901493084e+01 1.842401428222656250e+02
2.124960637325557045e+01 1.842239227294921875e+02
2.128091545749621361e+01 1.863096466064453125e+02
2.131222454173685321e+01 1.891964569091796875e+02
2.134353362597749282e+01 1.889795532226562500e+02
2.137484271021813598e+01 1.892311401367187500e+02
2.140615179445877914e+01 1.895533142089843750e+02
2.143746087869941874e+01 1.901281433105468750e+02
2.146876996294005835e+01 1.885227661132812500e+02
2.150007904718070151e+01 1.887915191650390625e+02
2.153138813142134467e+01 1.895562438964843750e+02
2.156269721566198427e+01 1.895323181152343750e+02
2.159400629990262388e+01 1.879386596679687500e+02
2.162531538414326704e+01 1.892771301269531250e+02
2.165662446838390665e+01 1.940353088378906250e+02
2.168793355262454980e+01 1.934562835693359375e+02
2.171924263686518941e+01 1.914973297119140625e+02
2.175055172110583257e+01 1.915611419677734375e+02
2.178186080534647218e+01 1.929885253906250000e+02
2.181316988958711534e+01 1.958369140625000000e+02
2.184447897382775494e+01 1.966948394775390625e+02
2.187578805806839455e+01 1.969858856201171875e+02
2.190709714230903771e+01 1.969219055175781250e+02
2.193840622654968087e+01 1.945035095214843750e+02
2.196971531079032047e+01 1.954219512939453125e+02
2.200102439503096008e+01 1.962751617431640625e+02
2.203233347927160324e+01 1.958013916015625000e+02
2.206364256351224640e+01 1.981116027832031250e+02
2.209495164775288600e+01 2.013194732666015625e+02
2.212626073199352561e+01 2.020607604980468750e+02
2.215756981623416877e+01 2.010347595214843750e+02
2.218887890047480838e+01 2.003763427734375000e+02
2.222018798471545153e+01 1.994407501220703125e+02
2.225149706895609114e+01 1.993129577636718750e+02
2.228280615319673430e+01 2.010519714355468750e+02
2.231411523743737391e+01 2.024095611572265625e+02
2.234542432167801707e+01 2.037715454101562500e+02
2.237673340591865667e+01 2.043823242187500000e+02
2.240804249015929628e+01 2.049728698730468750e+02
2.243935157439993944e+01 2.046815185546875000e+02
2.247066065864058260e+01 2.027407836914062500e+02
2.250196974288122220e+01 2.033625183105468750e+02
2.253327882712186181e+01 2.053001098632812500e+02
2.256458791136250497e+01 2.072642517089843750e+02
2.259589699560314813e+01 2.055472717285156250e+02
2.262720607984378773e+01 2.054307098388671875e+02
2.265851516408442734e+01 2.056892395019531250e+02
2.268982424832507050e+01 2.061433563232421875e+02
2.272113333256571011e+01 2.059303588867187500e+02
2.275244241680635326e+01 2.044178924560546875e+02
2.278375150104699287e+01 2.049790191650390625e+02
2.281506058528763603e+01 2.065918579101562500e+02
2.284636966952827564e+01 2.095751495361328125e+02
2.287767875376891880e+01 2.116924743652343750e+02
2.290898783800955840e+01 2.117053680419921875e+02
2.294029692225020156e+01 2.105465698242187500e+02
2.297160600649084117e+01 2.098780212402343750e+02
2.300291509073148433e+01 2.081788177490234375e+02
2.303422417497212393e+01 2.078956298828125000e+02
2.306553325921276354e+01 2.104288024902343750e+02
2.309684234345340670e+01 2.116392822265625000e+02
2.312815142769404986e+01 2.099320831298828125e+02
2.315946051193468946e+01 2.096619262695312500e+02
2.319076959617532907e+01 2.091201324462890625e+02
2.322207868041597223e+01 2.084194946289062500e+02
2.325338776465661539e+01 2.095384368896484375e+02
2.328469684889725499e+01 2.101580047607421875e+02
2.331600593313789460e+01 2.113328704833984375e+02
2.334731501737853776e+01 2.117555847167968750e+02
2.337862410161917737e+01 2.111273956298828125e+02
2.340993318585982053e+01 2.129080657958984375e+02
2.344124227010046013e+01 2.154917144775390625e+02
2.347255135434110329e+01 2.178846893310546875e+02
2.350386043858174290e+01 2.147390747070312500e+02
2.353516952282238606e+01 2.133543090820312500e+02
2.356647860706302566e+01 2.124743499755859375e+02
2.359778769130366527e+01 2.113172760009765625e+02
2.362909677554430843e+01 2.129373931884765625e+02
2.366040585978495159e+01 2.131537780761718750e+02
2.369171494402559119e+01 2.153886566162109375e+02
2.372302402826623080e+01 2.144328613281250000e+02
2.375433311250687396e+01 2.132765808105468750e+02
2.378564219674751712e+01 2.161291656494140625e+02
2.381695128098815673e+01 2.176007385253906250e+02
2.384826036522879633e+01 2.166888732910156250e+02
2.387956944946943949e+01 2.191172180175781250e+02
2.391087853371007910e+01 2.183517303466796875e+02
2.394218761795072226e+01 2.174842529296875000e+02
2.397349670219136186e+01 2.195637054443359375e+02
2.400480578643200502e+01 2.206455383300781250e+02
2.403611487067264463e+01 2.199713134765625000e+02
2.406742395491328779e+01 2.193312988281250000e+02
2.409873303915392739e+01 2.198880920410156250e+02
2.413004212339456700e+01 2.205760650634765625e+02
2.416135120763521016e+01 2.221976623535156250e+02
2.419266029187585332e+01 2.220203857421875000e+02
2.422396937611649292e+01 2.213592071533203125e+02
2.425527846035713253e+01 2.236824798583984375e+02
2.428658754459777569e+01 2.283087158203125000e+02
2.431789662883841885e+01 2.278181152343750000e+02
2.434920571307905846e+01 2.264765777587890625e+02
2.438051479731969806e+01 2.282411804199218750e+02
2.441182388156034122e+01 2.284396057128906250e+02
2.444313296580098083e+01 2.274195404052734375e+02
2.447444205004162399e+01 2.286725311279296875e+02
2.450575113428226359e+01 2.289969635009765625e+02
2.453706021852290675e+01 2.279642944335937500e+02
2.456836930276354636e+01 2.298757019042968750e+02
2.459967838700418952e+01 2.292988739013671875e+02
2.463098747124482912e+01 2.306184082031250000e+02
2.466229655548547228e+01 2.335379180908203125e+02
2.469360563972611189e+01 2.339211578369140625e+02
2.472491472396675505e+01 2.323779602050781250e+02
2.475622380820739465e+01 2.309547119140625000e+02
2.478753289244803426e+01 2.318565521240234375e+02
2.481884197668867742e+01 2.348039855957031250e+02
2.485015106092932058e+01 2.359823455810546875e+02
2.488146014516996019e+01 2.364593505859375000e+02
2.491276922941059979e+01 2.363844299316406250e+02
2.494407831365124295e+01 2.361877593994140625e+02
2.497538739789188611e+01 2.367488098144531250e+02
2.500669648213252572e+01 2.389313507080078125e+02
2.503800556637316532e+01 2.398102264404296875e+02
2.506931465061380848e+01 2.412801513671875000e+02
2.510062373485444809e+01 2.409844665527343750e+02
2.513193281909509125e+01 2.410055084228515625e+02
2.516324190333573085e+01 2.426658630371093750e+02
2.519455098757637401e+01 2.415248565673828125e+02
2.522586007181701362e+01 2.409497680664062500e+02
2.525716915605765678e+01 2.434630279541015625e+02
2.528847824029829638e+01 2.444093780517578125e+02
2.531978732453893599e+01 2.445594635009765625e+02
2.535109640877957915e+01 2.455051727294921875e+02
2.538240549302022231e+01 2.472316131591796875e+02
2.541371457726086192e+01 2.480852966308593750e+02
2.544502366150150152e+01 2.483109588623046875e+02
2.547633274574214468e+01 2.471759185791015625e+02
2.550764182998278784e+01 2.457686614990234375e+02
2.553895091422342745e+01 2.468176879882812500e+02
2.557025999846406705e+01 2.460484466552734375e+02
2.560156908270471021e+01 2.456904907226562500e+02
2.563287816694535337e+01 2.455767059326171875e+02
2.566418725118599298e+01 2.416185760498046875e+02
2.569549633542663258e+01 2.428867187500000000e+02
2.572680541966727219e+01 2.463960571289062500e+02
2.575811450390791535e+01 2.457394256591796875e+02
2.578942358814855851e+01 2.461387481689453125e+02
2.582073267238919811e+01 2.498775024414062500e+02
2.585204175662983772e+01 2.514688873291015625e+02
2.588335084087048088e+01 2.515035095214843750e+02
2.591465992511112404e+01 2.518506011962890625e+02
2.594596900935176365e+01 2.537373199462890625e+02
2.597727809359240325e+01 2.577656250000000000e+02
2.600858717783304641e+01 2.591508483886718750e+02
2.603989626207368957e+01 2.593313598632812500e+02
2.607120534631432918e+01 2.604748840332031250e+02
2.610251443055496878e+01 2.605014648437500000e+02
2.613382351479561194e+01 2.627218017578125000e+02
2.616513259903625510e+01 2.628427734375000000e+02
2.619644168327689471e+01 2.616747436523437500e+02
2.622775076751753431e+01 2.632102355957031250e+02
2.625905985175817747e+01 2.651196289062500000e+02
2.629036893599881708e+01 2.664075622558593750e+02
2.632167802023946024e+01 2.652335510253906250e+02
2.635298710448009984e+01 2.648108825683593750e+02
2.638429618872073945e+01 2.655450134277343750e+02
2.641560527296138261e+01 2.682348632812500000e+02
2.644691435720202577e+01 2.712240905761718750e+02
2.647822344144266538e+01 2.735113525390625000e+02
2.650953252568330498e+01 2.720838623046875000e+02
2.654084160992394814e+01 2.727639160156250000e+02
2.657215069416459130e+01 2.732869567871093750e+02
2.660345977840523091e+01 2.753076782226562500e+02
2.663476886264587051e+01 2.772845458984375000e+02
2.666607794688651367e+01 2.758702392578125000e+02
2.669738703112715683e+01 2.772081298828125000e+02
2.672869611536779644e+01 2.780971984863281250e+02
2.676000519960843604e+01 2.801279602050781250e+02
2.679131428384907920e+01 2.796035461425781250e+02
2.682262336808972236e+01 2.802489624023437500e+02
2.685393245233036197e+01 2.848043212890625000e+02
2.688524153657100157e+01 2.863212280273437500e+02
2.691655062081164118e+01 2.826430053710937500e+02
2.694785970505228434e+01 2.827754821777343750e+02
2.697916878929292750e+01 2.848160400390625000e+02
2.701047787353356711e+01 2.867020568847656250e+02
2.704178695777420671e+01 2.877079162597656250e+02
2.707309604201484987e+01 2.876868286132812500e+02
2.710440512625549303e+01 2.899669799804687500e+02
2.713571421049613264e+01 2.922744750976562500e+02
2.716702329473677224e+01 2.936594848632812500e+02
2.719833237897741540e+01 2.950295104980468750e+02
2.722964146321805856e+01 2.963701477050781250e+02
2.726095054745869817e+01 2.972599792480468750e+02
2.729225963169933777e+01 2.989381408691406250e+02
2.732356871593998093e+01 2.984920043945312500e+02
2.735487780018062409e+01 2.975715332031250000e+02
2.738618688442126370e+01 2.993158569335937500e+02
2.741749596866190331e+01 3.012073059082031250e+02
2.744880505290254291e+01 3.005924377441406250e+02
2.748011413714318607e+01 3.000739440917968750e+02
2.751142322138382923e+01 3.025993652343750000e+02
2.754273230562446884e+01 3.051434631347656250e+02
2.757404138986510844e+01 3.078384094238281250e+02
2.760535047410575160e+01 3.100005798339843750e+02
2.763665955834639476e+01 3.084513244628906250e+02
2.766796864258703437e+01 3.120052490234375000e+02
2.769927772682767397e+01 3.119541931152343750e+02
2.773058681106831713e+01 3.094294738769531250e+02
2.776189589530896029e+01 3.131517944335937500e+02
2.779320497954959990e+01 3.131209716796875000e+02
2.782451406379023950e+01 3.130446777343750000e+02
2.785582314803088266e+01 3.143537292480468750e+02
2.788713223227152582e+01 3.164012451171875000e+02
2.791844131651216543e+01 3.184939880371093750e+02
2.794975040075280504e+01 3.180558471679687500e+02
2.798105948499344819e+01 3.201546020507812500e+02
2.801236856923408780e+01 3.221009216308593750e+02
2.804367765347473096e+01 3.228092346191406250e+02
2.807498673771537057e+01 3.232455749511718750e+02
2.810629582195601017e+01 3.257315063476562500e+02
2.813760490619665333e+01 3.281197204589843750e+02
2.816891399043729649e+01 3.294414978027343750e+02
2.820022307467793610e+01 3.308868103027343750e+02
2.823153215891857570e+01 3.305570678710937500e+02
2.826284124315921886e+01 3.296088867187500000e+02
2.829415032739986202e+01 3.302479858398437500e+02
2.832545941164050163e+01 3.319495544433593750e+02
2.835676849588114123e+01 3.339705200195312500e+02
2.838807758012178439e+01 3.364524230957031250e+02
2.841938666436242755e+01 3.375206298828125000e+02
2.845069574860306716e+01 3.399216918945312500e+02
2.848200483284370677e+01 3.389529724121093750e+02
2.851331391708434992e+01 3.383986511230468750e+02
2.854462300132499308e+01 3.410390930175781250e+02
2.857593208556563269e+01 3.426270751953125000e+02
2.860724116980627230e+01 3.442924804687500000e+02
2.863855025404691190e+01 3.465184631347656250e+02
2.866985933828755506e+01 3.478409423828125000e+02
2.870116842252819822e+01 3.472285156250000000e+02
2.873247750676883783e+01 3.458532714843750000e+02
2.876378659100947743e+01 3.485300598144531250e+02
2.879509567525012059e+01 3.518463745117187500e+02
2.882640475949076375e+01 3.547259826660156250e+02
2.885771384373140336e+01 3.556815185546875000e+02
2.888902292797204296e+01 3.594336853027343750e+02
2.892033201221268612e+01 3.611748046875000000e+02
2.895164109645332928e+01 3.616334228515625000e+02
2.898295018069396889e+01 3.608686218261718750e+02
2.901425926493460850e+01 3.612177734375000000e+02
2.904556834917525165e+01 3.635725097656250000e+02
2.907687743341589481e+01 3.642960205078125000e+02
2.910818651765653442e+01 3.645035095214843750e+02
2.913949560189717403e+01 3.683716125488281250e+02
2.917080468613781363e+01 3.695929565429687500e+02
2.920211377037845679e+01 3.698939514160156250e+02
2.923342285461909995e+01 3.708626708984375000e+02
2.926473193885973956e+01 3.736170654296875000e+02
2.929604102310037916e+01 3.768612060546875000e+02
2.932735010734102232e+01 3.791818237304687500e+02
2.935865919158166548e+01 3.810037536621093750e+02
2.938996827582230509e+01 3.814579772949218750e+02
2.942127736006294469e+01 3.827650756835937500e+02
2.945258644430358785e+01 3.846064453125000000e+02
2.948389552854423101e+01 3.881665344238281250e+02
2.951520461278487062e+01 3.914161071777343750e+02
2.954651369702551023e+01 3.924999389648437500e+02
2.957782278126615338e+01 3.948092346191406250e+02
2.960913186550679654e+01 3.947336730957031250e+02
2.964044094974743615e+01 3.973852233886718750e+02
2.967175003398807576e+01 4.001423034667968750e+02
2.970305911822871892e+01 4.038191528320312500e+02
2.973436820246935852e+01 4.081989440917968750e+02
2.976567728671000168e+01 4.141197814941406250e+02
2.979698637095064129e+01 4.123778991699218750e+02
2.982829545519128089e+01 4.134922180175781250e+02
2.985960453943192405e+01 4.141996459960937500e+02
2.989091362367256721e+01 4.178264465332031250e+02
2.992222270791320682e+01 4.212140197753906250e+02
2.995353179215384642e+01 4.234334411621093750e+02
2.998484087639448958e+01 4.290917053222656250e+02
3.001614996063513274e+01 4.334143371582031250e+02
3.004745904487577235e+01 4.364070129394531250e+02
3.007876812911641196e+01 4.392098999023437500e+02
3.011007721335705511e+01 4.423735961914062500e+02
3.014138629759769827e+01 4.481099548339843750e+02
3.017269538183833788e+01 4.509957580566406250e+02
3.020400446607897749e+01 4.530863952636718750e+02
3.023531355031962065e+01 4.584500732421875000e+02
3.026662263456026380e+01 4.662551879882812500e+02
3.029793171880090341e+01 4.715807189941406250e+02
3.032924080304154302e+01 4.751622619628906250e+02
3.036054988728218262e+01 4.797710266113281250e+02
3.039185897152282578e+01 4.850004882812500000e+02
3.042316805576346894e+01 4.894871520996093750e+02
3.045447714000410855e+01 4.951492919921875000e+02
3.048578622424474815e+01 5.050018920898437500e+02
3.051709530848539131e+01 5.073560791015625000e+02
3.054840439272603447e+01 5.125958251953125000e+02
3.057971347696667408e+01 5.186569213867187500e+02
3.061102256120731369e+01 5.246770019531250000e+02
3.064233164544795684e+01 5.333893432617187500e+02
3.067364072968860000e+01 5.383341674804687500e+02
3.070494981392923961e+01 5.427534179687500000e+02
3.073625889816987922e+01 5.518729248046875000e+02
3.076756798241052238e+01 5.589746093750000000e+02
3.079887706665116553e+01 5.660126342773437500e+02
3.083018615089180514e+01 5.753283081054687500e+02
3.086149523513244475e+01 5.789832153320312500e+02
3.089280431937308435e+01 5.848717041015625000e+02
3.092411340361372751e+01 5.922232055664062500e+02
3.095542248785437067e+01 5.967348632812500000e+02
3.098673157209501028e+01 6.001932373046875000e+02
3.101804065633564989e+01 6.050858764648437500e+02
3.104934974057629304e+01 6.126047363281250000e+02
3.108065882481693620e+01 6.181281127929687500e+02
3.111196790905757581e+01 6.206775512695312500e+02
3.114327699329821542e+01 6.241697387695312500e+02
3.117458607753885858e+01 6.265427856445312500e+02
3.120589516177950173e+01 6.292655029296875000e+02
3.123720424602014134e+01 6.284779663085937500e+02
3.126851333026078095e+01 6.248898925781250000e+02
3.129982241450142411e+01 6.204725952148437500e+02
3.133113149874206727e+01 6.201116943359375000e+02
3.136244058298270687e+01 6.232385253906250000e+02
3.139374966722334648e+01 6.206730957031250000e+02
3.142505875146398964e+01 6.174453735351562500e+02
3.145636783570462924e+01 6.115541992187500000e+02
3.148767691994527240e+01 6.077605590820312500e+02
3.151898600418591201e+01 6.037524414062500000e+02
3.155029508842655162e+01 5.964660644531250000e+02
3.158160417266719477e+01 5.921255493164062500e+02
3.161291325690783793e+01 5.839495239257812500e+02
3.164422234114847754e+01 5.752700805664062500e+02
3.167553142538911715e+01 5.685427246093750000e+02
3.170684050962976031e+01 5.602374267578125000e+02
3.173814959387040346e+01 5.513791503906250000e+02
3.176945867811104307e+01 5.442852172851562500e+02
3.180076776235168268e+01 5.370125732421875000e+02
3.183207684659232584e+01 5.288455810546875000e+02
3.186338593083296900e+01 5.198361816406250000e+02
3.189469501507360860e+01 5.120952148437500000e+02
3.192600409931424821e+01 5.022761840820312500e+02
3.195731318355489137e+01 4.901414489746093750e+02
3.198862226779553453e+01 4.829883422851562500e+02
3.201993135203617413e+01 4.763299255371093750e+02
3.205124043627681374e+01 4.670623474121093750e+02
3.208254952051745335e+01 4.586596679687500000e+02
3.211385860475809295e+01 4.513862609863281250e+02
3.214516768899873966e+01 4.435833435058593750e+02
3.217647677323937927e+01 4.353462829589843750e+02
3.220778585748001888e+01 4.277755737304687500e+02
3.223909494172066559e+01 4.227590026855468750e+02
3.227040402596130519e+01 4.152442016601562500e+02
3.230171311020194480e+01 4.077347717285156250e+02
3.233302219444258441e+01 4.029672241210937500e+02
3.236433127868322401e+01 3.961715393066406250e+02
3.239564036292387073e+01 3.901910400390625000e+02
3.242694944716451033e+01 3.851967468261718750e+02
3.245825853140514994e+01 3.791641540527343750e+02
3.248956761564579665e+01 3.758666381835937500e+02
3.252087669988643626e+01 3.721932983398437500e+02
3.255218578412707586e+01 3.673420715332031250e+02
3.258349486836771547e+01 3.639468383789062500e+02
3.261480395260835508e+01 3.594884033203125000e+02
3.264611303684900179e+01 3.560447692871093750e+02
3.267742212108964139e+01 3.509380798339843750e+02
3.270873120533028100e+01 3.494210205078125000e+02
3.274004028957092061e+01 3.438300781250000000e+02
3.277134937381156021e+01 3.391438903808593750e+02
3.280265845805220692e+01 3.351059570312500000e+02
3.283396754229284653e+01 3.337734680175781250e+02
3.286527662653348614e+01 3.325134277343750000e+02
3.289658571077413285e+01 3.309623413085937500e+02
3.292789479501477246e+01 3.275799560546875000e+02
3.295920387925541206e+01 3.247023010253906250e+02
3.299051296349605167e+01 3.210945739746093750e+02
3.302182204773669127e+01 3.203097229003906250e+02
3.305313113197733799e+01 3.189525451660156250e+02
3.308444021621797759e+01 3.137695922851562500e+02
3.311574930045861720e+01 3.123743896484375000e+02
3.314705838469925681e+01 3.097994079589843750e+02
3.317836746893989641e+01 3.093120727539062500e+02
3.320967655318054312e+01 3.070200500488281250e+02
3.324098563742118273e+01 3.048763732910156250e+02
3.327229472166182234e+01 3.046735534667968750e+02
3.330360380590246905e+01 3.056703491210937500e+02
3.333491289014310865e+01 3.041573486328125000e+02
3.336622197438374826e+01 3.059212646484375000e+02
3.339753105862438787e+01 3.067315673828125000e+02
3.342884014286502747e+01 2.997470092773437500e+02
3.346014922710567419e+01 2.936207275390625000e+02
3.349145831134631379e+01 2.909646301269531250e+02
3.352276739558695340e+01 2.875770263671875000e+02
3.355407647982760011e+01 2.845680236816406250e+02
3.358538556406823261e+01 2.796885681152343750e+02
3.361669464830887932e+01 2.795147094726562500e+02
3.364800373254951893e+01 2.774803466796875000e+02
3.367931281679015854e+01 2.773159484863281250e+02
3.371062190103080525e+01 2.761109313964843750e+02
3.374193098527144485e+01 2.748717041015625000e+02
3.377324006951208446e+01 2.752958068847656250e+02
3.380454915375273117e+01 2.736803894042968750e+02
3.383585823799336367e+01 2.729835510253906250e+02
3.386716732223401038e+01 2.728096618652343750e+02
3.389847640647464999e+01 2.729122924804687500e+02
3.392978549071528960e+01 2.719494628906250000e+02
3.396109457495593631e+01 2.696886901855468750e+02
3.399240365919657592e+01 2.648733520507812500e+02
3.402371274343721552e+01 2.651484680175781250e+02
3.405502182767785513e+01 2.671404724121093750e+02
3.408633091191849473e+01 2.647654724121093750e+02
3.411763999615914145e+01 2.599509277343750000e+02
3.414894908039978105e+01 2.577748107910156250e+02
3.418025816464042066e+01 2.586044311523437500e+02
3.421156724888106737e+01 2.565562744140625000e+02
3.424287633312169987e+01 2.546674957275390625e+02
3.427418541736234658e+01 2.539635925292968750e+02
3.430549450160298619e+01 2.539854736328125000e+02
3.433680358584362580e+01 2.465057678222656250e+02
3.436811267008427251e+01 2.435418701171875000e+02
3.439942175432491211e+01 2.474972229003906250e+02
3.443073083856555172e+01 2.451636199951171875e+02
3.446203992280619843e+01 2.430027618408203125e+02
3.449334900704683093e+01 2.438800201416015625e+02
3.452465809128747765e+01 2.440896606445312500e+02
3.455596717552811725e+01 2.371465148925781250e+02
3.458727625976875686e+01 2.365691375732421875e+02
3.461858534400940357e+01 2.344711456298828125e+02
3.464989442825003607e+01 2.339085845947265625e+02
3.468120351249068278e+01 2.328585510253906250e+02
3.471251259673132239e+01 2.297910308837890625e+02
3.474382168097196200e+01 2.411192932128906250e+02
3.477513076521260871e+01 2.566942749023437500e+02
3.480643984945324831e+01 2.605960693359375000e+02
3.483774893369388792e+01 2.590983581542968750e+02
3.486905801793453463e+01 2.596294250488281250e+02
3.490036710217516713e+01 2.549575653076171875e+02
3.493167618641581385e+01 2.540639343261718750e+02
3.496298527065645345e+01 2.535514678955078125e+02
3.499429435489709306e+01 2.494056854248046875e+02
3.502560343913773977e+01 2.487810363769531250e+02
3.505691252337837938e+01 2.482667694091796875e+02
3.508822160761901898e+01 2.456960144042968750e+02
3.511953069185966569e+01 2.441952514648437500e+02
3.515083977610029820e+01 2.443995666503906250e+02
3.518214886034094491e+01 2.450697479248046875e+02
3.521345794458158451e+01 2.446050262451171875e+02
3.524476702882222412e+01 2.444453125000000000e+02
3.527607611306287083e+01 2.430535736083984375e+02
3.530738519730350333e+01 2.421688842773437500e+02
3.533869428154415004e+01 2.409201354980468750e+02
3.537000336578478965e+01 2.363250885009765625e+02
3.540131245002542926e+01 2.357811584472656250e+02
3.543262153426607597e+01 2.352266998291015625e+02
3.546393061850671558e+01 2.333038482666015625e+02
3.549523970274735518e+01 2.320603179931640625e+02
3.552654878698800189e+01 2.317674102783203125e+02
3.555785787122863439e+01 2.322645568847656250e+02
3.558916695546928111e+01 2.331096038818359375e+02
3.562047603970992071e+01 2.294036407470703125e+02
3.565178512395056032e+01 2.291497650146484375e+02
3.568309420819120703e+01 2.299425201416015625e+02
3.571440329243184664e+01 2.284547119140625000e+02
3.574571237667248624e+01 2.276894378662109375e+02
3.577702146091312585e+01 2.306998443603515625e+02
3.580833054515376546e+01 2.294069824218750000e+02
3.583963962939441217e+01 2.275017242431640625e+02
3.587094871363505177e+01 2.249309082031250000e+02
3.590225779787569138e+01 2.266369476318359375e+02
3.593356688211633809e+01 2.227145233154296875e+02
3.596487596635697059e+01 2.241746826171875000e+02
3.599618505059761731e+01 2.243034820556640625e+02
3.602749413483825691e+01 2.207516632080078125e+02
3.605880321907889652e+01 2.218196716308593750e+02
3.609011230331954323e+01 2.228989257812500000e+02
3.612142138756018284e+01 2.210675659179687500e+02
3.615273047180082244e+01 2.180024261474609375e+02
3.618403955604146915e+01 2.193854370117187500e+02
3.621534864028210166e+01 2.202729644775390625e+02
3.624665772452274837e+01 2.215074920654296875e+02
3.627796680876338797e+01 2.213878479003906250e+02
3.630927589300402758e+01 2.209572753906250000e+02
3.634058497724467429e+01 2.196013488769531250e+02
3.637189406148530679e+01 2.151661834716796875e+02
3.640320314572595350e+01 2.144909515380859375e+02
3.643451222996659311e+01 2.176226196289062500e+02
3.646582131420723272e+01 2.177675933837890625e+02
3.649713039844787943e+01 2.175371856689453125e+02
3.652843948268851904e+01 2.170113830566406250e+02
3.655974856692915864e+01 2.185042419433593750e+02
3.659105765116980535e+01 2.182058258056640625e+02
3.662236673541043785e+01 2.148518981933593750e+02
3.665367581965108457e+01 2.115900573730468750e+02
3.668498490389172417e+01 2.122433624267578125e+02
3.671629398813236378e+01 2.116252746582031250e+02
3.674760307237301049e+01 2.111555480957031250e+02
3.677891215661365010e+01 2.103781585693359375e+02
3.681022124085428970e+01 2.118336486816406250e+02
3.684153032509493642e+01 2.120276641845703125e+02
3.687283940933556892e+01 2.112660064697265625e+02
3.690414849357621563e+01 2.098063201904296875e+02
3.693545757781685523e+01 2.062158813476562500e+02
3.696676666205749484e+01 2.054789733886718750e+02
3.699807574629814155e+01 2.071610260009765625e+02
3.702938483053877405e+01 2.058845214843750000e+02
3.706069391477942077e+01 2.055717620849609375e+02
3.709200299902006037e+01 2.049886627197265625e+02
3.712331208326069998e+01 2.047997131347656250e+02
3.715462116750134669e+01 2.050025329589843750e+02
3.718593025174198630e+01 2.024638671875000000e+02
3.721723933598262590e+01 1.991598510742187500e+02
3.724854842022327261e+01 2.013186950683593750e+02
3.727985750446390512e+01 2.003556976318359375e+02
3.731116658870455183e+01 1.996230773925781250e+02
3.734247567294519143e+01 1.993697967529296875e+02
3.737378475718583104e+01 1.997017364501953125e+02
3.740509384142647775e+01 1.984522552490234375e+02
3.743640292566711025e+01 1.970250854492187500e+02
3.746771200990775696e+01 1.945558624267578125e+02
3.749902109414839657e+01 1.955632934570312500e+02
3.753033017838903618e+01 1.959810485839843750e+02
3.756163926262968289e+01 1.952050476074218750e+02
3.759294834687032250e+01 1.937741851806640625e+02
3.762425743111096210e+01 1.922446136474609375e+02
3.765556651535160881e+01 1.912093353271484375e+02
3.768687559959224131e+01 1.911907806396484375e+02
3.771818468383288803e+01 1.890659332275390625e+02
3.774949376807352763e+01 1.873805541992187500e+02
3.778080285231416724e+01 1.882299804687500000e+02
3.781211193655481395e+01 1.865145416259765625e+02
3.784342102079545356e+01 1.845200805664062500e+02
3.787473010503609316e+01 1.837320404052734375e+02
3.790603918927673988e+01 1.838066101074218750e+02
3.793734827351737238e+01 1.850581665039062500e+02
3.796865735775801909e+01 1.864694671630859375e+02
3.799996644199865869e+01 1.872657928466796875e+02
3.803127552623929830e+01 1.852906188964843750e+02
3.806258461047994501e+01 1.827234649658203125e+02
3.809389369472057751e+01 1.831830139160156250e+02
3.812520277896122423e+01 1.837400665283203125e+02
3.815651186320186383e+01 1.834347991943359375e+02
3.818782094744250344e+01 1.813117828369140625e+02
3.821913003168315015e+01 1.836433105468750000e+02
3.825043911592378976e+01 1.806476898193359375e+02
3.828174820016442936e+01 1.804608459472656250e+02
3.831305728440507608e+01 1.790968627929687500e+02
3.834436636864570858e+01 1.789572906494140625e+02
3.837567545288635529e+01 1.780466766357421875e+02
3.840698453712699489e+01 1.755900115966796875e+02
3.843829362136763450e+01 1.751529846191406250e+02
3.846960270560828121e+01 1.740166168212890625e+02
3.850091178984892082e+01 1.742941131591796875e+02
3.853222087408956043e+01 1.755581359863281250e+02
3.856352995833020714e+01 1.716092071533203125e+02
3.859483904257083964e+01 1.739443969726562500e+02
3.862614812681148635e+01 1.729233245849609375e+02
3.865745721105212596e+01 1.714424896240234375e+02
3.868876629529276556e+01 1.731015319824218750e+02
3.872007537953341227e+01 1.716873626708984375e+02
3.875138446377404478e+01 1.686500396728515625e+02
3.878269354801469149e+01 1.704098052978515625e+02
3.881400263225533109e+01 1.722991790771484375e+02
3.884531171649597070e+01 1.710950775146484375e+02
3.887662080073661741e+01 1.699206542968750000e+02
3.890792988497725702e+01 1.712206726074218750e+02
3.893923896921789662e+01 1.715925903320312500e+02
3.897054805345854334e+01 1.720965576171875000e+02
3.900185713769917584e+01 1.706551971435546875e+02
3.903316622193982255e+01 1.678221893310546875e+02
3.906447530618046216e+01 1.689746093750000000e+02
3.909578439042110176e+01 1.667339782714843750e+02
3.912709347466174847e+01 1.696456298828125000e+02
3.915840255890238097e+01 1.678043060302734375e+02
3.918971164314302769e+01 1.648412475585937500e+02
3.922102072738366729e+01 1.641051788330078125e+02
3.925232981162430690e+01 1.663421325683593750e+02
3.928363889586495361e+01 1.658796539306640625e+02
3.931494798010559322e+01 1.649618835449218750e+02
3.934625706434623282e+01 1.644787597656250000e+02
3.937756614858687954e+01 1.659015655517578125e+02
3.940887523282751204e+01 1.652433166503906250e+02
3.944018431706815875e+01 1.635709228515625000e+02
3.947149340130879835e+01 1.655663604736328125e+02
3.950280248554943796e+01 1.633787536621093750e+02
3.953411156979008467e+01 1.652592620849609375e+02
3.956542065403072428e+01 1.636974029541015625e+02
3.959672973827136389e+01 1.622195587158203125e+02
3.962803882251201060e+01 1.611939544677734375e+02
3.965934790675264310e+01 1.634270019531250000e+02
3.969065699099328981e+01 1.617503509521484375e+02
3.972196607523392942e+01 1.628734283447265625e+02
3.975327515947456902e+01 1.631722717285156250e+02
3.978458424371521573e+01 1.606024627685546875e+02
3.981589332795584824e+01 1.623246154785156250e+02
3.984720241219649495e+01 1.613443756103515625e+02
3.987851149643713455e+01 1.596884613037109375e+02
3.990982058067777416e+01 1.590451049804687500e+02
3.994112966491842087e+01 1.616526184082031250e+02
3.997243874915906048e+01 1.604092864990234375e+02
4.000374783339970008e+01 1.602012939453125000e+02
4.003505691764034680e+01 1.580472564697265625e+02
4.006636600188097930e+01 1.588292999267578125e+02
4.009767508612162601e+01 1.594632568359375000e+02
4.012898417036226562e+01 1.590940093994140625e+02
4.016029325460290522e+01 1.570866699218750000e+02
4.019160233884355193e+01 1.590805511474609375e+02
4.022291142308419154e+01 1.612735137939453125e+02
4.025422050732483115e+01 1.626540832519531250e+02
4.028552959156547786e+01 1.607463531494140625e+02
4.031683867580611036e+01 1.591297760009765625e+02
4.034814776004675707e+01 1.601227722167968750e+02
4.037945684428739668e+01 1.622533264160156250e+02
4.041076592852803628e+01 1.624201812744140625e+02
4.044207501276868300e+01 1.613628845214843750e+02
4.047338409700931550e+01 1.602800445556640625e+02
4.050469318124996221e+01 1.611791381835937500e+02
4.053600226549060181e+01 1.628952941894531250e+02
4.056731134973124142e+01 1.612081298828125000e+02
4.059862043397188813e+01 1.600241394042968750e+02
4.062992951821252774e+01 1.577490997314453125e+02
4.066123860245316735e+01 1.571803436279296875e+02
4.069254768669381406e+01 1.577429809570312500e+02
4.072385677093444656e+01 1.588907318115234375e+02
4.075516585517509327e+01 1.594766693115234375e+02
4.078647493941573288e+01 1.598079223632812500e+02
4.081778402365637248e+01 1.570011291503906250e+02
4.084909310789701919e+01 1.581060943603515625e+02
4.088040219213765170e+01 1.578249969482421875e+02
4.091171127637829841e+01 1.570070343017578125e+02
4.094302036061893801e+01 1.569446716308593750e+02
4.097432944485957762e+01 1.553089294433593750e+02
4.100563852910022433e+01 1.581471557617187500e+02
4.103694761334086394e+01 1.586894531250000000e+02
4.106825669758150354e+01 1.559483337402343750e+02
4.109956578182215026e+01 1.570749359130859375e+02
4.113087486606278276e+01 1.608120880126953125e+02
4.116218395030342947e+01 1.596939239501953125e+02
4.119349303454406908e+01 1.570034790039062500e+02
4.122480211878470868e+01 1.541624603271484375e+02
4.125611120302535539e+01 1.530806884765625000e+02
4.128742028726599500e+01 1.514779052734375000e+02
4.131872937150663461e+01 1.503883666992187500e+02
4.135003845574728132e+01 1.536744842529296875e+02
4.138134753998791382e+01 1.524775543212890625e+02
4.141265662422856053e+01 1.513485870361328125e+02
4.144396570846920014e+01 1.500282135009765625e+02
4.147527479270983974e+01 1.550527343750000000e+02
4.150658387695048646e+01 1.604078979492187500e+02
4.153789296119111896e+01 1.582147521972656250e+02
4.156920204543176567e+01 1.556184997558593750e+02
4.160051112967240527e+01 1.497810363769531250e+02
4.163182021391304488e+01 1.500975799560546875e+02
4.166312929815369159e+01 1.513955993652343750e+02
4.169443838239433120e+01 1.514325103759765625e+02
4.172574746663497081e+01 1.529718627929687500e+02
4.175705655087561752e+01 1.506361236572265625e+02
4.178836563511625002e+01 1.509221038818359375e+02
4.181967471935689673e+01 1.510941009521484375e+02
4.185098380359753634e+01 1.469371185302734375e+02
4.188229288783817594e+01 1.451251373291015625e+02
4.191360197207882266e+01 1.488425750732421875e+02
4.194491105631946226e+01 1.505932617187500000e+02
4.197622014056010187e+01 1.483352355957031250e+02
4.200752922480074858e+01 1.435922088623046875e+02
4.203883830904138108e+01 1.430527954101562500e+02
4.207014739328202779e+01 1.477242736816406250e+02
4.210145647752266740e+01 1.487328948974609375e+02
4.213276556176330701e+01 1.477669067382812500e+02
4.216407464600395372e+01 1.464759216308593750e+02
4.219538373024458622e+01 1.467349548339843750e+02
4.222669281448523293e+01 1.442329864501953125e+02
4.225800189872587254e+01 1.449940185546875000e+02
4.228931098296651214e+01 1.454104919433593750e+02
4.232062006720715885e+01 1.427033081054687500e+02
4.235192915144779846e+01 1.454280853271484375e+02
4.238323823568843807e+01 1.438627777099609375e+02
4.241454731992908478e+01 1.437621002197265625e+02
4.244585640416971728e+01 1.431132049560546875e+02
4.247716548841036399e+01 1.454102172851562500e+02
4.250847457265100360e+01 1.450998992919921875e+02
4.253978365689164320e+01 1.431179809570312500e+02
4.257109274113228992e+01 1.428070526123046875e+02
4.260240182537292242e+01 1.426591339111328125e+02
4.263371090961356913e+01 1.437994232177734375e+02
4.266501999385420874e+01 1.426824035644531250e+02
4.269632907809484834e+01 1.445809478759765625e+02
4.272763816233549505e+01 1.466801910400390625e+02
4.275894724657613466e+01 1.458435211181640625e+02
4.279025633081677427e+01 1.440468902587890625e+02
4.282156541505742098e+01 1.436215667724609375e+02
4.285287449929805348e+01 1.432852783203125000e+02
4.288418358353870019e+01 1.429691009521484375e+02
4.291549266777933980e+01 1.428652191162109375e+02
4.294680175201997940e+01 1.460122375488281250e+02
4.297811083626062612e+01 1.457569885253906250e+02
4.300941992050126572e+01 1.465986175537109375e+02
4.304072900474190533e+01 1.484302825927734375e+02
4.307203808898255204e+01 1.480271301269531250e+02
4.310334717322318454e+01 1.482331848144531250e+02
4.313465625746383125e+01 1.444502563476562500e+02
4.316596534170447086e+01 1.417829895019531250e+02
4.319727442594511047e+01 1.431414642333984375e+02
4.322858351018575718e+01 1.437786865234375000e+02
4.325989259442638968e+01 1.438571624755859375e+02
4.329120167866703639e+01 1.445304260253906250e+02
4.332251076290767600e+01 1.434745483398437500e+02
4.335381984714831560e+01 1.444902496337890625e+02
4.338512893138896231e+01 1.434282531738281250e+02
4.341643801562960192e+01 1.433107604980468750e+02
4.344774709987024153e+01 1.432114257812500000e+02
4.347905618411088824e+01 1.424942474365234375e+02
4.351036526835152074e+01 1.430071563720703125e+02
4.354167435259216745e+01 1.433396606445312500e+02
4.357298343683280706e+01 1.427247314453125000e+02
4.360429252107344666e+01 1.408809356689453125e+02
4.363560160531409338e+01 1.422886657714843750e+02
4.366691068955473298e+01 1.394143524169921875e+02
4.369821977379537259e+01 1.387614898681640625e+02
4.372952885803601930e+01 1.400307769775390625e+02
4.376083794227665180e+01 1.414015197753906250e+02
4.379214702651729851e+01 1.413674468994140625e+02
4.382345611075793812e+01 1.418040161132812500e+02
4.385476519499857773e+01 1.402663726806640625e+02
4.388607427923922444e+01 1.438443603515625000e+02
4.391738336347985694e+01 1.409013671875000000e+02
4.394869244772050365e+01 1.416623687744140625e+02
4.398000153196114326e+01 1.430521545410156250e+02
4.401131061620178286e+01 1.429511566162109375e+02
4.404261970044242958e+01 1.400303192138671875e+02
4.407392878468306918e+01 1.364900207519531250e+02
4.410523786892370879e+01 1.406471405029296875e+02
4.413654695316435550e+01 1.396311035156250000e+02
4.416785603740498800e+01 1.383832855224609375e+02
4.419916512164563471e+01 1.405632019042968750e+02
4.423047420588627432e+01 1.404023895263671875e+02
4.426178329012691393e+01 1.403071441650390625e+02
4.429309237436756064e+01 1.376981811523437500e+02
4.432440145860819314e+01 1.372517852783203125e+02
4.435571054284883985e+01 1.369690093994140625e+02
4.438701962708947946e+01 1.372460479736328125e+02
4.441832871133011906e+01 1.391111145019531250e+02
4.444963779557076577e+01 1.398188323974609375e+02
4.448094687981140538e+01 1.389162445068359375e+02
4.451225596405204499e+01 1.363646087646484375e+02
4.454356504829269170e+01 1.354602661132812500e+02
4.457487413253332420e+01 1.385663909912109375e+02
4.460618321677397091e+01 1.383014373779296875e+02
4.463749230101461052e+01 1.383822479248046875e+02
4.466880138525525012e+01 1.381338958740234375e+02
4.470011046949589684e+01 1.367573089599609375e+02
4.473141955373653644e+01 1.335961608886718750e+02
4.476272863797717605e+01 1.346046295166015625e+02
4.479403772221782276e+01 1.340948944091796875e+02
4.482534680645845526e+01 1.356431121826171875e+02
4.485665589069910197e+01 1.339639892578125000e+02
4.488796497493974158e+01 1.357292938232421875e+02
4.491927405918038119e+01 1.349160461425781250e+02
4.495058314342102790e+01 1.353719787597656250e+02
4.498189222766166040e+01 1.353898925781250000e+02
4.501320131190230711e+01 1.338308868408203125e+02
4.504451039614294672e+01 1.336752929687500000e+02
4.507581948038358632e+01 1.350546112060546875e+02
4.510712856462423304e+01 1.344368896484375000e+02
4.513843764886487264e+01 1.328019714355468750e+02
4.516974673310551225e+01 1.359913635253906250e+02
4.520105581734615896e+01 1.319543914794921875e+02
4.523236490158679146e+01 1.325035858154296875e+02
4.526367398582743817e+01 1.354443359375000000e+02
4.529498307006807778e+01 1.320634155273437500e+02
4.532629215430871739e+01 1.313276977539062500e+02
4.535760123854936410e+01 1.325875091552734375e+02
4.538891032279000370e+01 1.342862396240234375e+02
4.542021940703064331e+01 1.350458679199218750e+02
4.545152849127129002e+01 1.335340728759765625e+02
4.548283757551192252e+01 1.312934722900390625e+02
4.551414665975256924e+01 1.347969665527343750e+02
4.554545574399320884e+01 1.339765014648437500e+02
4.557676482823384845e+01 1.340654754638671875e+02
4.560807391247449516e+01 1.346796112060546875e+02
4.563938299671512766e+01 1.326817169189453125e+02
4.567069208095577437e+01 1.309464416503906250e+02
4.570200116519641398e+01 1.310539855957031250e+02
4.573331024943705359e+01 1.334828186035156250e+02
4.576461933367770030e+01 1.358440093994140625e+02
4.579592841791833990e+01 1.382333984375000000e+02
4.582723750215897951e+01 1.362933959960937500e+02
4.585854658639962622e+01 1.357204437255859375e+02
4.588985567064025872e+01 1.366280364990234375e+02
4.592116475488090543e+01 1.389773864746093750e+02
4.595247383912154504e+01 1.385875701904296875e+02
4.598378292336218465e+01 1.387761688232421875e+02
4.601509200760283136e+01 1.378456115722656250e+02
4.604640109184346386e+01 1.370948486328125000e+02
4.607771017608411057e+01 1.376174011230468750e+02
4.610901926032475018e+01 1.374013366699218750e+02
4.614032834456538978e+01 1.391355133056640625e+02
4.617163742880603650e+01 1.356993103027343750e+02
4.620294651304667610e+01 1.373238677978515625e+02
4.623425559728731571e+01 1.374863739013671875e+02
4.626556468152796242e+01 1.401656036376953125e+02
4.629687376576859492e+01 1.401271820068359375e+02
4.632818285000924163e+01 1.375566864013671875e+02
4.635949193424988124e+01 1.396088256835937500e+02
4.639080101849052085e+01 1.405916137695312500e+02
4.642211010273116756e+01 1.402199401855468750e+02
4.645341918697180716e+01 1.427456359863281250e+02
4.648472827121244677e+01 1.403934020996093750e+02
4.651603735545309348e+01 1.388512573242187500e+02
4.654734643969372598e+01 1.416776885986328125e+02
4.657865552393437270e+01 1.400858001708984375e+02
4.660996460817501230e+01 1.411757965087890625e+02
4.664127369241565191e+01 1.418787994384765625e+02
4.667258277665629862e+01 1.387332611083984375e+02
4.670389186089693112e+01 1.429989318847656250e+02
4.673520094513757783e+01 1.434091644287109375e+02
4.676651002937821744e+01 1.401208343505859375e+02
4.679781911361885705e+01 1.407058258056640625e+02
4.682912819785950376e+01 1.450434112548828125e+02
4.686043728210014336e+01 1.465444183349609375e+02
4.689174636634078297e+01 1.496578063964843750e+02
4.692305545058142968e+01 1.421429138183593750e+02
4.695436453482206218e+01 1.365215606689453125e+02
4.698567361906270889e+01 1.388678436279296875e+02
4.701698270330334850e+01 1.371999511718750000e+02
4.704829178754398811e+01 1.359080963134765625e+02
4.707960087178463482e+01 1.344830627441406250e+02
4.711090995602527443e+01 1.341221313476562500e+02
4.714221904026591403e+01 1.306152038574218750e+02
4.717352812450655364e+01 1.305316467285156250e+02
4.720483720874719324e+01 1.293234558105468750e+02
4.723614629298783996e+01 1.285205688476562500e+02
4.726745537722847956e+01 1.262314605712890625e+02
4.729876446146911917e+01 1.278785018920898438e+02
4.733007354570976588e+01 1.234261856079101562e+02
4.736138262995039838e+01 1.240074615478515625e+02
4.739269171419104509e+01 1.236143646240234375e+02
4.742400079843168470e+01 1.212096405029296875e+02
4.745530988267232431e+01 1.216790924072265625e+02
4.748661896691297102e+01 1.214509353637695312e+02
4.751792805115361062e+01 1.204607620239257812e+02
4.754923713539425023e+01 1.187861404418945312e+02
4.758054621963489694e+01 1.184412612915039062e+02
4.761185530387552944e+01 1.151692199707031250e+02
4.764316438811617616e+01 1.169280471801757812e+02
4.767447347235681576e+01 1.190989227294921875e+02
4.770578255659745537e+01 1.216502227783203125e+02
4.773709164083810208e+01 1.242535476684570312e+02
4.776840072507873458e+01 1.192763366699218750e+02
4.779970980931938129e+01 1.166168136596679688e+02
4.783101889356002090e+01 1.153488769531250000e+02
4.786232797780066051e+01 1.149927749633789062e+02
4.789363706204130722e+01 1.145971984863281250e+02
4.792494614628194682e+01 1.199078445434570312e+02
4.795625523052258643e+01 1.199093856811523438e+02
4.798756431476323314e+01 1.221534957885742188e+02
4.801887339900386564e+01 1.226930541992187500e+02
4.805018248324451235e+01 1.210490036010742188e+02
4.808149156748515196e+01 1.200275573730468750e+02
4.811280065172579157e+01 1.204246444702148438e+02
4.814410973596643828e+01 1.231034469604492188e+02
4.817541882020707789e+01 1.292583770751953125e+02
4.820672790444771749e+01 1.239998245239257812e+02
4.823803698868836420e+01 1.227850036621093750e+02
4.826934607292899670e+01 1.219124832153320312e+02
4.830065515716964342e+01 1.209264221191406250e+02
4.833196424141028302e+01 1.108976516723632812e+02
4.836327332565092263e+01 1.113176498413085938e+02
4.839458240989156934e+01 1.166925125122070312e+02
4.842589149413220184e+01 1.279035644531250000e+02
4.845720057837284855e+01 1.177192840576171875e+02
4.848850966261348816e+01 1.306818542480468750e+02
4.851981874685412777e+01 1.324005889892578125e+02
4.855112783109477448e+01 1.242709960937500000e+02
4.858243691533541408e+01 1.439605255126953125e+02
4.861374599957605369e+01 1.767826690673828125e+02
4.864505508381670040e+01 1.885644378662109375e+02
4.867636416805734001e+01 2.006909637451171875e+02
